EC-Lab ASCII FILE
Nb header lines : 47                          

Open Circuit Voltage

Run on channel : 15 (SN 19485)
User : 
Electrode connection : standard
Potential control : Ewe
Ewe ctrl range : min = -1.00 V, max = 1.00 V
Ewe,I filtering : 50 kHz
Safety Limits :
	Do not start on E overload
Channel : Floating
Acquisition started on : 02/23/2024 14:14:06.635
Loaded Setting File :  NONE
Saved on :
	File : 240223-OCV-EIS-Fe2Fe3_5mM-HCl1M-2000RPM-Ag_AgCl_BLF8-GC-RDE-1minRestVSEoc-3ppf-14p1mVAmplitude_07_OCV_C15.mpr
	Directory : C:\Data\mathias\RDE-RPM-variation\
	Host : 192.168.0.1
Device : VMP-300 (SN 0826)
Address : USB
EC-Lab for windows v11.52 (software)
Internet server v11.52 (firmware)
Command interpretor v11.52 (firmware)
Electrode material : 
Initial state : 
Electrolyte : 
Comments : 
Cable : special
Reference electrode : SCE Saturated Calomel Electrode (0.241 V)
Electrode surface area : 0.001 cm²
Characteristic mass : 0.001 g
Equivalent Weight : 0.000 g/eq.
Density : 0.000 g/cm3
Volume (V) : 0.001 cm³
Record EIS quality indicators
Cycle Definition : Charge/Discharge alternance
tR (h:m:s)          0:01:0.0000         
dER/dt (mV/h)       1.0                 
record              <Ewe>               
dER (mV)            0.00                
dtR (s)             0.5000              
E range min (V)     -1.000              
E range max (V)     1.000               

mode	error	time/s	<Ewe/V>	
3	0	1.448170055662704E+003	4.5946759E-001
3	0	1.448670055650073E+003	4.5965138E-001
3	0	1.449170055637442E+003	4.5972034E-001
3	0	1.449670055624811E+003	4.5975173E-001
3	0	1.450170055612180E+003	4.5976746E-001
3	0	1.450670055599549E+003	4.5977747E-001
3	0	1.451170055586917E+003	4.5978230E-001
3	0	1.451670055574286E+003	4.5978636E-001
3	0	1.452170055561655E+003	4.5978841E-001
3	0	1.452670055549024E+003	4.5979545E-001
3	0	1.453170055536393E+003	4.5979714E-001
3	0	1.453670055523762E+003	4.5980042E-001
3	0	1.454170055511131E+003	4.5980096E-001
3	0	1.454670055498500E+003	4.5980266E-001
3	0	1.455170055485869E+003	4.5980543E-001
3	0	1.455670055473238E+003	4.5980740E-001
3	0	1.456170055460607E+003	4.5980677E-001
3	0	1.456670055447976E+003	4.5980421E-001
3	0	1.457170055435345E+003	4.5980647E-001
3	0	1.457670055422714E+003	4.5980686E-001
3	0	1.458170055410083E+003	4.5980853E-001
3	0	1.458670055397452E+003	4.5980787E-001
3	0	1.459170055384820E+003	4.5980915E-001
3	0	1.459670055372189E+003	4.5980817E-001
3	0	1.460170055359558E+003	4.5980886E-001
3	0	1.460670055346927E+003	4.5980686E-001
3	0	1.461170055334296E+003	4.5980808E-001
3	0	1.461670055321665E+003	4.5981002E-001
3	0	1.462170055309034E+003	4.5980623E-001
3	0	1.462670055296403E+003	4.5980772E-001
3	0	1.463170055283772E+003	4.5980763E-001
3	0	1.463670055271141E+003	4.5980838E-001
3	0	1.464170055258510E+003	4.5980734E-001
3	0	1.464670055245879E+003	4.5980841E-001
3	0	1.465170055233248E+003	4.5980784E-001
3	0	1.465670055220617E+003	4.5980260E-001
3	0	1.466170055207986E+003	4.5980427E-001
3	0	1.466670055195355E+003	4.5980206E-001
3	0	1.467170055182723E+003	4.5980084E-001
3	0	1.467670055170092E+003	4.5980120E-001
3	0	1.468170055157461E+003	4.5980397E-001
3	0	1.468670055144830E+003	4.5980525E-001
3	0	1.469170055132199E+003	4.5980227E-001
3	0	1.469670055119568E+003	4.5979950E-001
3	0	1.470170055106937E+003	4.5980275E-001
3	0	1.470670055094306E+003	4.5980418E-001
3	0	1.471170055081675E+003	4.5980367E-001
3	0	1.471670055069044E+003	4.5980272E-001
3	0	1.472170055056413E+003	4.5980626E-001
3	0	1.472670055043782E+003	4.5980349E-001
3	0	1.473170055031151E+003	4.5980516E-001
3	0	1.473670055018520E+003	4.5980227E-001
3	0	1.474170055005889E+003	4.5980355E-001
3	0	1.474670054993258E+003	4.5980510E-001
3	0	1.475170054980626E+003	4.5980662E-001
3	0	1.475670054967995E+003	4.5980594E-001
3	0	1.476170054955364E+003	4.5980585E-001
3	0	1.476670054942733E+003	4.5980617E-001
3	0	1.477170054930102E+003	4.5980090E-001
3	0	1.477670054917471E+003	4.5980412E-001
3	0	1.478170054904840E+003	4.5980343E-001
3	0	1.478670054892209E+003	4.5980760E-001
3	0	1.479170054879578E+003	4.5980656E-001
3	0	1.479670054866947E+003	4.5980626E-001
3	0	1.480170054854316E+003	4.5980802E-001
3	0	1.480670054841685E+003	4.5980826E-001
3	0	1.481170054829054E+003	4.5980915E-001
3	0	1.481670054816423E+003	4.5980772E-001
3	0	1.482170054803792E+003	4.5981175E-001
3	0	1.482670054791161E+003	4.5980948E-001
3	0	1.483170054778529E+003	4.5980924E-001
3	0	1.483670054765898E+003	4.5980838E-001
3	0	1.484170054753267E+003	4.5980832E-001
3	0	1.484670054740636E+003	4.5980984E-001
3	0	1.485170054728005E+003	4.5981055E-001
3	0	1.485670054715374E+003	4.5981219E-001
3	0	1.486170054702743E+003	4.5981061E-001
3	0	1.486670054690112E+003	4.5980832E-001
3	0	1.487170054677481E+003	4.5981398E-001
3	0	1.487670054664850E+003	4.5981273E-001
3	0	1.488170054652219E+003	4.5980963E-001
3	0	1.488670054639588E+003	4.5980895E-001
3	0	1.489170054626957E+003	4.5980877E-001
3	0	1.489670054614326E+003	4.5981070E-001
3	0	1.490170054601695E+003	4.5980948E-001
3	0	1.490670054589064E+003	4.5980838E-001
3	0	1.491170054576432E+003	4.5980901E-001
3	0	1.491670054563801E+003	4.5980868E-001
3	0	1.492170054551170E+003	4.5980740E-001
3	0	1.492670054538539E+003	4.5980763E-001
3	0	1.493170054525908E+003	4.5980862E-001
3	0	1.493670054513277E+003	4.5980930E-001
3	0	1.494170054500646E+003	4.5980671E-001
3	0	1.494670054488015E+003	4.5980480E-001
3	0	1.495170054475384E+003	4.5980313E-001
3	0	1.495670054462753E+003	4.5980442E-001
3	0	1.496170054450122E+003	4.5980558E-001
3	0	1.496670054437491E+003	4.5980626E-001
3	0	1.497170054424860E+003	4.5980692E-001
3	0	1.497670054412229E+003	4.5980754E-001
3	0	1.498170054399598E+003	4.5980677E-001
3	0	1.498670054386967E+003	4.5980236E-001
3	0	1.499170054374335E+003	4.5980677E-001
3	0	1.499670054361704E+003	4.5980206E-001
3	0	1.500170054349073E+003	4.5980489E-001
3	0	1.500670054336442E+003	4.5980328E-001
3	0	1.501170054323811E+003	4.5980462E-001
3	0	1.501670054311180E+003	4.5980531E-001
3	0	1.502170054298549E+003	4.5980677E-001
3	0	1.502670054285918E+003	4.5980549E-001
3	0	1.503170054273287E+003	4.5980367E-001
3	0	1.503670054260656E+003	4.5980623E-001
3	0	1.504170054248025E+003	4.5980570E-001
3	0	1.504670054235394E+003	4.5980960E-001
3	0	1.505170054222763E+003	4.5981091E-001
3	0	1.505670054210132E+003	4.5981070E-001
3	0	1.506170054197501E+003	4.5980725E-001
3	0	1.506670054184870E+003	4.5980433E-001
3	0	1.507170054172238E+003	4.5980334E-001
3	0	1.507670054159607E+003	4.5980144E-001
3	0	1.507829254155586E+003	4.5979625E-001