EC-Lab ASCII FILE
Nb header lines : 47                          

Open Circuit Voltage

Run on channel : 15 (SN 19485)
User : 
Electrode connection : standard
Potential control : Ewe
Ewe ctrl range : min = -1.00 V, max = 1.00 V
Ewe,I filtering : 50 kHz
Safety Limits :
	Do not start on E overload
Channel : Floating
Acquisition started on : 02/23/2024 12:36:41.987
Loaded Setting File :  C:\Data\mathias\RDE-RPM-variation\240222-CV-EIS-Fe2Fe3_5mM-HCl1M-0RPM-Ag_AgCl_BLF8-GC-RDE-DefaultSettings.mps
Saved on :
	File : 240223-OCV-EIS-Fe2Fe3_5mM-HCl1M-2000RPM-Ag_AgCl_BLF8-GC-RDE-AllPreviousVariations_07_OCV_C15.mpr
	Directory : C:\Data\mathias\RDE-RPM-variation\
	Host : 192.168.0.1
Device : VMP-300 (SN 0826)
Address : USB
EC-Lab for windows v11.52 (software)
Internet server v11.52 (firmware)
Command interpretor v11.52 (firmware)
Electrode material : 
Initial state : 
Electrolyte : 
Comments : 
Cable : special
Reference electrode : SCE Saturated Calomel Electrode (0.241 V)
Electrode surface area : 0.001 cm²
Characteristic mass : 0.001 g
Equivalent Weight : 0.000 g/eq.
Density : 0.000 g/cm3
Volume (V) : 0.001 cm³
Record EIS quality indicators
Cycle Definition : Charge/Discharge alternance
tR (h:m:s)          0:01:0.0000         
dER/dt (mV/h)       1.0                 
record              <Ewe>               
dER (mV)            0.00                
dtR (s)             0.5000              
E range min (V)     -1.000              
E range max (V)     1.000               

mode	error	time/s	<Ewe/V>	
3	0	2.723297694642242E+003	4.1043869E-001
3	0	2.723797694629611E+003	4.4496199E-001
3	0	2.724297694616980E+003	4.5172423E-001
3	0	2.724797694604349E+003	4.5430580E-001
3	0	2.725297694591718E+003	4.5568523E-001
3	0	2.725797694579087E+003	4.5653358E-001
3	0	2.726297694566456E+003	4.5710945E-001
3	0	2.726797694553825E+003	4.5751780E-001
3	0	2.727297694541194E+003	4.5782086E-001
3	0	2.727797694528563E+003	4.5805213E-001
3	0	2.728297694515932E+003	4.5823449E-001
3	0	2.728797694503301E+003	4.5838353E-001
3	0	2.729297694490670E+003	4.5851114E-001
3	0	2.729797694478038E+003	4.5861822E-001
3	0	2.730297694465407E+003	4.5870900E-001
3	0	2.730797694452776E+003	4.5878664E-001
3	0	2.731297694440145E+003	4.5885548E-001
3	0	2.731797694427514E+003	4.5891258E-001
3	0	2.732297694414883E+003	4.5896241E-001
3	0	2.732797694402252E+003	4.5900881E-001
3	0	2.733297694389621E+003	4.5905155E-001
3	0	2.733797694376990E+003	4.5908743E-001
3	0	2.734297694364359E+003	4.5912391E-001
3	0	2.734797694351728E+003	4.5915145E-001
3	0	2.735297694339097E+003	4.5917884E-001
3	0	2.735797694326466E+003	4.5920470E-001
3	0	2.736297694313835E+003	4.5922643E-001
3	0	2.736797694301204E+003	4.5924646E-001
3	0	2.737297694288573E+003	4.5926696E-001
3	0	2.737797694275941E+003	4.5928615E-001
3	0	2.738297694263310E+003	4.5930353E-001
3	0	2.738797694250679E+003	4.5931998E-001
3	0	2.739297694238048E+003	4.5933557E-001
3	0	2.739797694225417E+003	4.5934835E-001
3	0	2.740297694212786E+003	4.5936105E-001
3	0	2.740797694200155E+003	4.5937464E-001
3	0	2.741297694187524E+003	4.5938331E-001
3	0	2.741797694174893E+003	4.5939445E-001
3	0	2.742297694162262E+003	4.5940858E-001
3	0	2.742797694149631E+003	4.5941925E-001
3	0	2.743297694137000E+003	4.5942804E-001
3	0	2.743797694124369E+003	4.5943475E-001
3	0	2.744297694111738E+003	4.5944202E-001
3	0	2.744797694099107E+003	4.5944950E-001
3	0	2.745297694086476E+003	4.5945826E-001
3	0	2.745797694073844E+003	4.5946819E-001
3	0	2.746297694061213E+003	4.5947692E-001
3	0	2.746797694048582E+003	4.5948562E-001
3	0	2.747297694035951E+003	4.5949358E-001
3	0	2.747797694023320E+003	4.5949703E-001
3	0	2.748297694010689E+003	4.5950148E-001
3	0	2.748797693998058E+003	4.5950788E-001
3	0	2.749297693985427E+003	4.5951438E-001
3	0	2.749797693972796E+003	4.5951989E-001
3	0	2.750297693960165E+003	4.5952377E-001
3	0	2.750797693947534E+003	4.5952687E-001
3	0	2.751297693934903E+003	4.5953602E-001
3	0	2.751797693922272E+003	4.5954108E-001
3	0	2.752297693909641E+003	4.5954588E-001
3	0	2.752797693897010E+003	4.5954940E-001
3	0	2.753297693884379E+003	4.5955744E-001
3	0	2.753797693871747E+003	4.5955926E-001
3	0	2.754297693859116E+003	4.5956638E-001
3	0	2.754797693846485E+003	4.5956808E-001
3	0	2.755297693833854E+003	4.5957521E-001
3	0	2.755797693821223E+003	4.5957816E-001
3	0	2.756297693808592E+003	4.5957956E-001
3	0	2.756797693795961E+003	4.5958352E-001
3	0	2.757297693783330E+003	4.5958811E-001
3	0	2.757797693770699E+003	4.5958978E-001
3	0	2.758297693758068E+003	4.5959508E-001
3	0	2.758797693745437E+003	4.5959654E-001
3	0	2.759297693732806E+003	4.5959803E-001
3	0	2.759797693720175E+003	4.5960194E-001
3	0	2.760297693707544E+003	4.5960709E-001
3	0	2.760797693694913E+003	4.5960763E-001
3	0	2.761297693682282E+003	4.5960939E-001
3	0	2.761797693669650E+003	4.5961204E-001
3	0	2.762297693657019E+003	4.5961145E-001
3	0	2.762797693644388E+003	4.5961520E-001
3	0	2.763297693631757E+003	4.5961896E-001
3	0	2.763797693619126E+003	4.5962024E-001
3	0	2.764297693606495E+003	4.5962396E-001
3	0	2.764797693593864E+003	4.5962542E-001
3	0	2.765297693581233E+003	4.5963165E-001
3	0	2.765797693568602E+003	4.5963070E-001
3	0	2.766297693555971E+003	4.5963132E-001
3	0	2.766797693543340E+003	4.5962942E-001
3	0	2.767297693530709E+003	4.5963171E-001
3	0	2.767797693518078E+003	4.5963308E-001
3	0	2.768297693505447E+003	4.5963377E-001
3	0	2.768797693492816E+003	4.5963836E-001
3	0	2.769297693480185E+003	4.5963761E-001
3	0	2.769797693467553E+003	4.5963797E-001
3	0	2.770297693454922E+003	4.5963895E-001
3	0	2.770797693442291E+003	4.5964020E-001
3	0	2.771297693429660E+003	4.5964143E-001
3	0	2.771797693417029E+003	4.5964572E-001
3	0	2.772297693404398E+003	4.5964816E-001
3	0	2.772797693391767E+003	4.5964730E-001
3	0	2.773297693379136E+003	4.5964974E-001
3	0	2.773797693366505E+003	4.5965043E-001
3	0	2.774297693353874E+003	4.5965075E-001
3	0	2.774797693341243E+003	4.5965052E-001
3	0	2.775297693328612E+003	4.5965353E-001
3	0	2.775797693315981E+003	4.5965528E-001
3	0	2.776297693303350E+003	4.5966178E-001
3	0	2.776797693290719E+003	4.5966324E-001
3	0	2.777297693278088E+003	4.5966688E-001
3	0	2.777797693265456E+003	4.5966941E-001
3	0	2.778297693252825E+003	4.5966956E-001
3	0	2.778797693240194E+003	4.5967188E-001
3	0	2.779297693227563E+003	4.5967254E-001
3	0	2.779797693214932E+003	4.5967469E-001
3	0	2.780297693202301E+003	4.5967647E-001
3	0	2.780797693189670E+003	4.5967525E-001
3	0	2.781297693177039E+003	4.5967728E-001
3	0	2.781797693164408E+003	4.5967928E-001
3	0	2.782297693151777E+003	4.5967907E-001
3	0	2.782797693139146E+003	4.5968094E-001
3	0	2.782956893135124E+003	4.5968109E-001