EC-Lab ASCII FILE
Nb header lines : 47                          

Open Circuit Voltage

Run on channel : 15 (SN 19485)
User : 
Electrode connection : standard
Potential control : Ewe
Ewe ctrl range : min = -1.00 V, max = 1.00 V
Ewe,I filtering : 50 kHz
Safety Limits :
	Do not start on E overload
Channel : Floating
Acquisition started on : 02/23/2024 14:14:06.635
Loaded Setting File :  NONE
Saved on :
	File : 240223-OCV-EIS-Fe2Fe3_5mM-HCl1M-2000RPM-Ag_AgCl_BLF8-GC-RDE-1minRestVSEoc-3ppf-14p1mVAmplitude_05_OCV_C15.mpr
	Directory : C:\Data\mathias\RDE-RPM-variation\
	Host : 192.168.0.1
Device : VMP-300 (SN 0826)
Address : USB
EC-Lab for windows v11.52 (software)
Internet server v11.52 (firmware)
Command interpretor v11.52 (firmware)
Electrode material : 
Initial state : 
Electrolyte : 
Comments : 
Cable : special
Reference electrode : SCE Saturated Calomel Electrode (0.241 V)
Electrode surface area : 0.001 cm²
Characteristic mass : 0.001 g
Equivalent Weight : 0.000 g/eq.
Density : 0.000 g/cm3
Volume (V) : 0.001 cm³
Record EIS quality indicators
Cycle Definition : Charge/Discharge alternance
tR (h:m:s)          0:01:0.0000         
dER/dt (mV/h)       1.0                 
record              <Ewe>               
dER (mV)            0.00                
dtR (s)             0.5000              
E range min (V)     -1.000              
E range max (V)     1.000               

mode	error	time/s	<Ewe/V>	
3	0	9.655584371055011E+002	4.6104720E-001
3	0	9.660584370928700E+002	4.6014974E-001
3	0	9.665584370802389E+002	4.5997488E-001
3	0	9.670584370676079E+002	4.5991480E-001
3	0	9.675584370549768E+002	4.5988578E-001
3	0	9.680584370423458E+002	4.5987326E-001
3	0	9.685584370297147E+002	4.5986307E-001
3	0	9.690584370170836E+002	4.5985284E-001
3	0	9.695584370044526E+002	4.5985124E-001
3	0	9.700584369918215E+002	4.5984757E-001
3	0	9.705584369791904E+002	4.5984495E-001
3	0	9.710584369665594E+002	4.5984051E-001
3	0	9.715584369539283E+002	4.5983890E-001
3	0	9.720584369412973E+002	4.5983806E-001
3	0	9.725584369286662E+002	4.5983464E-001
3	0	9.730584369160351E+002	4.5983371E-001
3	0	9.735584369034041E+002	4.5983249E-001
3	0	9.740584368907730E+002	4.5983312E-001
3	0	9.745584368781419E+002	4.5982966E-001
3	0	9.750584368655109E+002	4.5982790E-001
3	0	9.755584368528798E+002	4.5982805E-001
3	0	9.760584368402488E+002	4.5982659E-001
3	0	9.765584368276177E+002	4.5982835E-001
3	0	9.770584368149866E+002	4.5983088E-001
3	0	9.775584368023556E+002	4.5982903E-001
3	0	9.780584367897245E+002	4.5982894E-001
3	0	9.785584367770934E+002	4.5982882E-001
3	0	9.790584367644624E+002	4.5982751E-001
3	0	9.795584367518313E+002	4.5982879E-001
3	0	9.800584367392003E+002	4.5982674E-001
3	0	9.805584367265692E+002	4.5982814E-001
3	0	9.810584367139381E+002	4.5982668E-001
3	0	9.815584367013071E+002	4.5982867E-001
3	0	9.820584366886760E+002	4.5982623E-001
3	0	9.825584366760449E+002	4.5982501E-001
3	0	9.830584366634139E+002	4.5982635E-001
3	0	9.835584366507828E+002	4.5982340E-001
3	0	9.840584366381518E+002	4.5982048E-001
3	0	9.845584366255207E+002	4.5982030E-001
3	0	9.850584366128896E+002	4.5982286E-001
3	0	9.855584366002586E+002	4.5982209E-001
3	0	9.860584365876275E+002	4.5981970E-001
3	0	9.865584365749964E+002	4.5982224E-001
3	0	9.870584365623654E+002	4.5982039E-001
3	0	9.875584365497343E+002	4.5981950E-001
3	0	9.880584365371033E+002	4.5981804E-001
3	0	9.885584365244722E+002	4.5981902E-001
3	0	9.890584365118411E+002	4.5981994E-001
3	0	9.895584364992101E+002	4.5982069E-001
3	0	9.900584364865790E+002	4.5982111E-001
3	0	9.905584364739480E+002	4.5982078E-001
3	0	9.910584364613169E+002	4.5982054E-001
3	0	9.915584364486858E+002	4.5982131E-001
3	0	9.920584364360548E+002	4.5982146E-001
3	0	9.925584364234237E+002	4.5982093E-001
3	0	9.930584364107926E+002	4.5982316E-001
3	0	9.935584363981616E+002	4.5982179E-001
3	0	9.940584363855305E+002	4.5982233E-001
3	0	9.945584363728995E+002	4.5982301E-001
3	0	9.950584363602684E+002	4.5982653E-001
3	0	9.955584363476373E+002	4.5982897E-001
3	0	9.960584363350063E+002	4.5982850E-001
3	0	9.965584363223752E+002	4.5982921E-001
3	0	9.970584363097441E+002	4.5982742E-001
3	0	9.975584362971131E+002	4.5982605E-001
3	0	9.980584362844820E+002	4.5982575E-001
3	0	9.985584362718510E+002	4.5982569E-001
3	0	9.990584362592199E+002	4.5982665E-001
3	0	9.995584362465888E+002	4.5983043E-001
3	0	1.000058436233958E+003	4.5982966E-001
3	0	1.000558436221327E+003	4.5982921E-001
3	0	1.001058436208696E+003	4.5982790E-001
3	0	1.001558436196065E+003	4.5982957E-001
3	0	1.002058436183434E+003	4.5982760E-001
3	0	1.002558436170802E+003	4.5982790E-001
3	0	1.003058436158171E+003	4.5982888E-001
3	0	1.003558436145540E+003	4.5982751E-001
3	0	1.004058436132909E+003	4.5982698E-001
3	0	1.004558436120278E+003	4.5982677E-001
3	0	1.005058436107647E+003	4.5982477E-001
3	0	1.005558436095016E+003	4.5982277E-001
3	0	1.006058436082385E+003	4.5982131E-001
3	0	1.006558436069754E+003	4.5981947E-001
3	0	1.007058436057123E+003	4.5982137E-001
3	0	1.007558436044492E+003	4.5981863E-001
3	0	1.008058436031861E+003	4.5982072E-001
3	0	1.008558436019230E+003	4.5982042E-001
3	0	1.009058436006599E+003	4.5982018E-001
3	0	1.009558435993968E+003	4.5981985E-001
3	0	1.010058435981337E+003	4.5982111E-001
3	0	1.010558435968705E+003	4.5982149E-001
3	0	1.011058435956074E+003	4.5981887E-001
3	0	1.011558435943443E+003	4.5981956E-001
3	0	1.012058435930812E+003	4.5981887E-001
3	0	1.012558435918181E+003	4.5981908E-001
3	0	1.013058435905550E+003	4.5981809E-001
3	0	1.013558435892919E+003	4.5982009E-001
3	0	1.014058435880288E+003	4.5982102E-001
3	0	1.014558435867657E+003	4.5982218E-001
3	0	1.015058435855026E+003	4.5981961E-001
3	0	1.015558435842395E+003	4.5981809E-001
3	0	1.016058435829764E+003	4.5981809E-001
3	0	1.016558435817133E+003	4.5981809E-001
3	0	1.017058435804502E+003	4.5981672E-001
3	0	1.017558435791871E+003	4.5981589E-001
3	0	1.018058435779240E+003	4.5981628E-001
3	0	1.018558435766608E+003	4.5981497E-001
3	0	1.019058435753977E+003	4.5981398E-001
3	0	1.019558435741346E+003	4.5981076E-001
3	0	1.020058435728715E+003	4.5981130E-001
3	0	1.020558435716084E+003	4.5981282E-001
3	0	1.021058435703453E+003	4.5981100E-001
3	0	1.021558435690822E+003	4.5981193E-001
3	0	1.022058435678191E+003	4.5981166E-001
3	0	1.022558435665560E+003	4.5981008E-001
3	0	1.023058435652929E+003	4.5981231E-001
3	0	1.023558435640298E+003	4.5980868E-001
3	0	1.024058435627667E+003	4.5981231E-001
3	0	1.024558435615036E+003	4.5980868E-001
3	0	1.025058435602405E+003	4.5981055E-001
3	0	1.025217435598388E+003	4.5981055E-001