EC-Lab ASCII FILE
Nb header lines : 47                          

Open Circuit Voltage

Run on channel : 15 (SN 19485)
User : 
Electrode connection : standard
Potential control : Ewe
Ewe ctrl range : min = -1.00 V, max = 1.00 V
Ewe,I filtering : 50 kHz
Safety Limits :
	Do not start on E overload
Channel : Floating
Acquisition started on : 02/23/2024 15:54:32.363
Loaded Setting File :  NONE
Saved on :
	File : 240223-OCV-EIS-Fe2Fe3_5mM-HCl1M-225RPM-Ag_AgCl_BLF8-GC-RDE-1minRestVSEoc-3ppf-14p1mVAmplitude_07_OCV_C15.mpr
	Directory : C:\Data\mathias\RDE-RPM-variation\
	Host : 192.168.0.1
Device : VMP-300 (SN 0826)
Address : USB
EC-Lab for windows v11.52 (software)
Internet server v11.52 (firmware)
Command interpretor v11.52 (firmware)
Electrode material : 
Initial state : 
Electrolyte : 
Comments : 
Cable : special
Reference electrode : SCE Saturated Calomel Electrode (0.241 V)
Electrode surface area : 0.001 cm²
Characteristic mass : 0.001 g
Equivalent Weight : 0.000 g/eq.
Density : 0.000 g/cm3
Volume (V) : 0.001 cm³
Record EIS quality indicators
Cycle Definition : Charge/Discharge alternance
tR (h:m:s)          0:01:0.0000         
dER/dt (mV/h)       1.0                 
record              <Ewe>               
dER (mV)            0.00                
dtR (s)             0.5000              
E range min (V)     -1.000              
E range max (V)     1.000               

mode	error	time/s	<Ewe/V>	
3	0	1.443751655701853E+003	4.6091413E-001
3	0	1.444251655689222E+003	4.5994952E-001
3	0	1.444751655676591E+003	4.5971370E-001
3	0	1.445251655663960E+003	4.5961833E-001
3	0	1.445751655651329E+003	4.5957190E-001
3	0	1.446251655638698E+003	4.5955023E-001
3	0	1.446751655626067E+003	4.5953375E-001
3	0	1.447251655613436E+003	4.5952576E-001
3	0	1.447751655600805E+003	4.5952019E-001
3	0	1.448251655588174E+003	4.5951921E-001
3	0	1.448751655575543E+003	4.5951959E-001
3	0	1.449251655562912E+003	4.5952132E-001
3	0	1.449751655550281E+003	4.5951775E-001
3	0	1.450251655537650E+003	4.5951927E-001
3	0	1.450751655525019E+003	4.5951843E-001
3	0	1.451251655512388E+003	4.5951828E-001
3	0	1.451751655499756E+003	4.5951688E-001
3	0	1.452251655487125E+003	4.5951492E-001
3	0	1.452751655474494E+003	4.5950896E-001
3	0	1.453251655461863E+003	4.5950857E-001
3	0	1.453751655449232E+003	4.5950890E-001
3	0	1.454251655436601E+003	4.5950916E-001
3	0	1.454751655423970E+003	4.5950896E-001
3	0	1.455251655411339E+003	4.5950872E-001
3	0	1.455751655398708E+003	4.5950794E-001
3	0	1.456251655386077E+003	4.5951164E-001
3	0	1.456751655373446E+003	4.5951569E-001
3	0	1.457251655360815E+003	4.5951054E-001
3	0	1.457751655348184E+003	4.5950818E-001
3	0	1.458251655335553E+003	4.5950636E-001
3	0	1.458751655322922E+003	4.5950484E-001
3	0	1.459251655310291E+003	4.5950583E-001
3	0	1.459751655297659E+003	4.5950162E-001
3	0	1.460251655285028E+003	4.5950124E-001
3	0	1.460751655272397E+003	4.5949808E-001
3	0	1.461251655259766E+003	4.5949724E-001
3	0	1.461751655247135E+003	4.5949724E-001
3	0	1.462251655234504E+003	4.5949954E-001
3	0	1.462751655221873E+003	4.5949847E-001
3	0	1.463251655209242E+003	4.5949930E-001
3	0	1.463751655196611E+003	4.5949954E-001
3	0	1.464251655183980E+003	4.5950148E-001
3	0	1.464751655171349E+003	4.5949772E-001
3	0	1.465251655158718E+003	4.5949334E-001
3	0	1.465751655146087E+003	4.5949119E-001
3	0	1.466251655133456E+003	4.5949167E-001
3	0	1.466751655120825E+003	4.5949143E-001
3	0	1.467251655108194E+003	4.5949289E-001
3	0	1.467751655095562E+003	4.5949143E-001
3	0	1.468251655082931E+003	4.5949006E-001
3	0	1.468751655070300E+003	4.5948869E-001
3	0	1.469251655057669E+003	4.5948797E-001
3	0	1.469751655045038E+003	4.5949039E-001
3	0	1.470251655032407E+003	4.5948771E-001
3	0	1.470751655019776E+003	4.5948538E-001
3	0	1.471251655007145E+003	4.5948690E-001
3	0	1.471751654994514E+003	4.5948654E-001
3	0	1.472251654981883E+003	4.5948768E-001
3	0	1.472751654969252E+003	4.5948663E-001
3	0	1.473251654956621E+003	4.5948327E-001
3	0	1.473751654943990E+003	4.5948395E-001
3	0	1.474251654931359E+003	4.5948714E-001
3	0	1.474751654918728E+003	4.5948660E-001
3	0	1.475251654906097E+003	4.5948568E-001
3	0	1.475751654893465E+003	4.5948502E-001
3	0	1.476251654880834E+003	4.5948556E-001
3	0	1.476751654868203E+003	4.5948821E-001
3	0	1.477251654855572E+003	4.5948479E-001
3	0	1.477751654842941E+003	4.5948255E-001
3	0	1.478251654830310E+003	4.5947659E-001
3	0	1.478751654817679E+003	4.5947352E-001
3	0	1.479251654805048E+003	4.5947784E-001
3	0	1.479751654792417E+003	4.5947951E-001
3	0	1.480251654779786E+003	4.5948088E-001
3	0	1.480751654767155E+003	4.5948234E-001
3	0	1.481251654754524E+003	4.5948121E-001
3	0	1.481751654741893E+003	4.5948371E-001
3	0	1.482251654729262E+003	4.5948532E-001
3	0	1.482751654716631E+003	4.5948479E-001
3	0	1.483251654704000E+003	4.5948210E-001
3	0	1.483751654691368E+003	4.5948189E-001
3	0	1.484251654678737E+003	4.5948112E-001
3	0	1.484751654666106E+003	4.5947310E-001
3	0	1.485251654653475E+003	4.5946935E-001
3	0	1.485751654640844E+003	4.5947796E-001
3	0	1.486251654628213E+003	4.5948011E-001
3	0	1.486751654615582E+003	4.5947820E-001
3	0	1.487251654602951E+003	4.5947540E-001
3	0	1.487751654590320E+003	4.5947635E-001
3	0	1.488251654577689E+003	4.5947668E-001
3	0	1.488751654565058E+003	4.5947784E-001
3	0	1.489251654552427E+003	4.5947981E-001
3	0	1.489751654539796E+003	4.5948067E-001
3	0	1.490251654527165E+003	4.5948058E-001
3	0	1.490751654514534E+003	4.5947814E-001
3	0	1.491251654501903E+003	4.5947537E-001
3	0	1.491751654489271E+003	4.5947474E-001
3	0	1.492251654476640E+003	4.5947668E-001
3	0	1.492751654464009E+003	4.5947081E-001
3	0	1.493251654451378E+003	4.5947039E-001
3	0	1.493751654438747E+003	4.5947027E-001
3	0	1.494251654426116E+003	4.5946932E-001
3	0	1.494751654413485E+003	4.5946932E-001
3	0	1.495251654400854E+003	4.5947191E-001
3	0	1.495751654388223E+003	4.5947835E-001
3	0	1.496251654375592E+003	4.5947689E-001
3	0	1.496751654362961E+003	4.5947498E-001
3	0	1.497251654350330E+003	4.5947421E-001
3	0	1.497751654337699E+003	4.5947635E-001
3	0	1.498251654325068E+003	4.5947570E-001
3	0	1.498751654312437E+003	4.5947406E-001
3	0	1.499251654299806E+003	4.5947191E-001
3	0	1.499751654287174E+003	4.5947191E-001
3	0	1.500251654274543E+003	4.5947337E-001
3	0	1.500751654261912E+003	4.5947215E-001
3	0	1.501251654249281E+003	4.5947126E-001
3	0	1.501751654236650E+003	4.5947108E-001
3	0	1.502251654224019E+003	4.5947430E-001
3	0	1.502751654211388E+003	4.5947453E-001
3	0	1.503251654198757E+003	4.5947698E-001
3	0	1.503409854194761E+003	4.5947510E-001