EC-Lab ASCII FILE
Nb header lines : 47                          

Open Circuit Voltage

Run on channel : 15 (SN 19485)
User : 
Electrode connection : standard
Potential control : Ewe
Ewe ctrl range : min = -1.00 V, max = 1.00 V
Ewe,I filtering : 50 kHz
Safety Limits :
	Do not start on E overload
Channel : Floating
Acquisition started on : 02/23/2024 14:14:06.635
Loaded Setting File :  NONE
Saved on :
	File : 240223-OCV-EIS-Fe2Fe3_5mM-HCl1M-2000RPM-Ag_AgCl_BLF8-GC-RDE-1minRestVSEoc-3ppf-14p1mVAmplitude_03_OCV_C15.mpr
	Directory : C:\Data\mathias\RDE-RPM-variation\
	Host : 192.168.0.1
Device : VMP-300 (SN 0826)
Address : USB
EC-Lab for windows v11.52 (software)
Internet server v11.52 (firmware)
Command interpretor v11.52 (firmware)
Electrode material : 
Initial state : 
Electrolyte : 
Comments : 
Cable : special
Reference electrode : SCE Saturated Calomel Electrode (0.241 V)
Electrode surface area : 0.001 cm²
Characteristic mass : 0.001 g
Equivalent Weight : 0.000 g/eq.
Density : 0.000 g/cm3
Volume (V) : 0.001 cm³
Record EIS quality indicators
Cycle Definition : Charge/Discharge alternance
tR (h:m:s)          0:01:0.0000         
dER/dt (mV/h)       1.0                 
record              <Ewe>               
dER (mV)            0.00                
dtR (s)             0.5000              
E range min (V)     -1.000              
E range max (V)     1.000               

mode	error	time/s	<Ewe/V>	
3	0	4.829500185484358E+002	4.6097165E-001
3	0	4.834500185358047E+002	4.6010011E-001
3	0	4.839500185231736E+002	4.5995212E-001
3	0	4.844500185105426E+002	4.5990583E-001
3	0	4.849500184979115E+002	4.5988387E-001
3	0	4.854500184852805E+002	4.5987111E-001
3	0	4.859500184726494E+002	4.5986483E-001
3	0	4.864500184600183E+002	4.5986351E-001
3	0	4.869500184473873E+002	4.5985979E-001
3	0	4.874500184347562E+002	4.5985597E-001
3	0	4.879500184221251E+002	4.5985442E-001
3	0	4.884500184094941E+002	4.5985553E-001
3	0	4.889500183968630E+002	4.5985320E-001
3	0	4.894500183842320E+002	4.5985189E-001
3	0	4.899500183716009E+002	4.5984986E-001
3	0	4.904500183589698E+002	4.5985016E-001
3	0	4.909500183463388E+002	4.5985055E-001
3	0	4.914500183337077E+002	4.5984769E-001
3	0	4.919500183210766E+002	4.5984817E-001
3	0	4.924500183084456E+002	4.5984542E-001
3	0	4.929500182958145E+002	4.5984158E-001
3	0	4.934500182831835E+002	4.5984054E-001
3	0	4.939500182705524E+002	4.5983982E-001
3	0	4.944500182579213E+002	4.5984250E-001
3	0	4.949500182452903E+002	4.5984089E-001
3	0	4.954500182326592E+002	4.5983815E-001
3	0	4.959500182200281E+002	4.5983785E-001
3	0	4.964500182073971E+002	4.5983517E-001
3	0	4.969500181947660E+002	4.5983592E-001
3	0	4.974500181821350E+002	4.5983884E-001
3	0	4.979500181695039E+002	4.5983759E-001
3	0	4.984500181568728E+002	4.5983624E-001
3	0	4.989500181442418E+002	4.5983747E-001
3	0	4.994500181316107E+002	4.5984054E-001
3	0	4.999500181189796E+002	4.5983982E-001
3	0	5.004500181063486E+002	4.5984191E-001
3	0	5.009500180937175E+002	4.5984030E-001
3	0	5.014500180810865E+002	4.5984021E-001
3	0	5.019500180684554E+002	4.5983675E-001
3	0	5.024500180558243E+002	4.5983729E-001
3	0	5.029500180431933E+002	4.5983884E-001
3	0	5.034500180305622E+002	4.5983908E-001
3	0	5.039500180179311E+002	4.5983899E-001
3	0	5.044500180053001E+002	4.5983747E-001
3	0	5.049500179926690E+002	4.5983607E-001
3	0	5.054500179800380E+002	4.5983690E-001
3	0	5.059500179674069E+002	4.5983791E-001
3	0	5.064500179547758E+002	4.5983607E-001
3	0	5.069500179421448E+002	4.5983219E-001
3	0	5.074500179295137E+002	4.5983356E-001
3	0	5.079500179168826E+002	4.5983288E-001
3	0	5.084500179042516E+002	4.5983216E-001
3	0	5.089500178916205E+002	4.5983541E-001
3	0	5.094500178789895E+002	4.5983782E-001
3	0	5.099500178663584E+002	4.5983562E-001
3	0	5.104500178537273E+002	4.5983371E-001
3	0	5.109500178410963E+002	4.5983338E-001
3	0	5.114500178284652E+002	4.5983654E-001
3	0	5.119500178158341E+002	4.5983759E-001
3	0	5.124500178032031E+002	4.5983630E-001
3	0	5.129500177905720E+002	4.5983678E-001
3	0	5.134500177779410E+002	4.5983356E-001
3	0	5.139500177653099E+002	4.5983189E-001
3	0	5.144500177526788E+002	4.5983234E-001
3	0	5.149500177400478E+002	4.5983303E-001
3	0	5.154500177274167E+002	4.5983019E-001
3	0	5.159500177147856E+002	4.5982921E-001
3	0	5.164500177021546E+002	4.5982829E-001
3	0	5.169500176895235E+002	4.5983270E-001
3	0	5.174500176768925E+002	4.5983279E-001
3	0	5.179500176642614E+002	4.5983118E-001
3	0	5.184500176516303E+002	4.5983040E-001
3	0	5.189500176389993E+002	4.5982903E-001
3	0	5.194500176263682E+002	4.5982933E-001
3	0	5.199500176137371E+002	4.5982853E-001
3	0	5.204500176011061E+002	4.5982805E-001
3	0	5.209500175884750E+002	4.5982903E-001
3	0	5.214500175758440E+002	4.5982620E-001
3	0	5.219500175632129E+002	4.5982400E-001
3	0	5.224500175505818E+002	4.5982882E-001
3	0	5.229500175379508E+002	4.5982829E-001
3	0	5.234500175253197E+002	4.5982844E-001
3	0	5.239500175126886E+002	4.5982799E-001
3	0	5.244500175000576E+002	4.5982653E-001
3	0	5.249500174874265E+002	4.5982489E-001
3	0	5.254500174747955E+002	4.5982248E-001
3	0	5.259500174621644E+002	4.5982340E-001
3	0	5.264500174495333E+002	4.5982605E-001
3	0	5.269500174369023E+002	4.5982730E-001
3	0	5.274500174242712E+002	4.5982736E-001
3	0	5.279500174116401E+002	4.5982531E-001
3	0	5.284500173990091E+002	4.5982391E-001
3	0	5.289500173863780E+002	4.5982736E-001
3	0	5.294500173737470E+002	4.5982692E-001
3	0	5.299500173611159E+002	4.5982796E-001
3	0	5.304500173484848E+002	4.5982623E-001
3	0	5.309500173358538E+002	4.5982730E-001
3	0	5.314500173232227E+002	4.5982921E-001
3	0	5.319500173105916E+002	4.5982492E-001
3	0	5.324500172979606E+002	4.5982814E-001
3	0	5.329500172853295E+002	4.5982409E-001
3	0	5.334500172726985E+002	4.5982531E-001
3	0	5.339500172600674E+002	4.5982581E-001
3	0	5.344500172474363E+002	4.5982477E-001
3	0	5.349500172348053E+002	4.5982477E-001
3	0	5.354500172221742E+002	4.5982659E-001
3	0	5.359500172095431E+002	4.5982477E-001
3	0	5.364500171969121E+002	4.5982391E-001
3	0	5.369500171842810E+002	4.5982742E-001
3	0	5.374500171716500E+002	4.5982566E-001
3	0	5.379500171590189E+002	4.5982462E-001
3	0	5.384500171463878E+002	4.5982429E-001
3	0	5.389500171337568E+002	4.5982614E-001
3	0	5.394500171211257E+002	4.5982322E-001
3	0	5.399500171084946E+002	4.5982379E-001
3	0	5.404500170958636E+002	4.5982140E-001
3	0	5.409500170832325E+002	4.5982262E-001
3	0	5.414500170706015E+002	4.5982307E-001
3	0	5.419500170579704E+002	4.5982400E-001
3	0	5.424500170453393E+002	4.5982111E-001
3	0	5.426086170413328E+002	4.5982069E-001