EC-Lab ASCII FILE
Nb header lines : 47                          

Open Circuit Voltage

Run on channel : 15 (SN 19485)
User : 
Electrode connection : standard
Potential control : Ewe
Ewe ctrl range : min = -1.00 V, max = 1.00 V
Ewe,I filtering : 50 kHz
Safety Limits :
	Do not start on E overload
Channel : Floating
Acquisition started on : 02/23/2024 14:49:54.683
Loaded Setting File :  NONE
Saved on :
	File : 240223-OCV-EIS-Fe2Fe3_5mM-HCl1M-1225RPM-Ag_AgCl_BLF8-GC-RDE-1minRestVSEoc-3ppf-14p1mVAmplitude_01_OCV_C15.mpr
	Directory : C:\Data\mathias\RDE-RPM-variation\
	Host : 192.168.0.1
Device : VMP-300 (SN 0826)
Address : USB
EC-Lab for windows v11.52 (software)
Internet server v11.52 (firmware)
Command interpretor v11.52 (firmware)
Electrode material : 
Initial state : 
Electrolyte : 
Comments : 
Cable : special
Reference electrode : SCE Saturated Calomel Electrode (0.241 V)
Electrode surface area : 0.001 cm²
Characteristic mass : 0.001 g
Equivalent Weight : 0.000 g/eq.
Density : 0.000 g/cm3
Volume (V) : 0.001 cm³
Record EIS quality indicators
Cycle Definition : Charge/Discharge alternance
tR (h:m:s)          0:01:0.0000         
dER/dt (mV/h)       1.0                 
record              <Ewe>               
dER (mV)            0.00                
dtR (s)             0.5000              
E range min (V)     -1.000              
E range max (V)     1.000               

mode	error	time/s	<Ewe/V>	
3	0	4.999999873689376E-001	4.5980114E-001
3	0	9.999999747378752E-001	4.5980075E-001
3	0	1.499999962106813E+000	4.5980179E-001
3	0	1.999999949475750E+000	4.5980281E-001
3	0	2.499999936844688E+000	4.5980281E-001
3	0	2.999999924213625E+000	4.5980290E-001
3	0	3.499999911582563E+000	4.5980150E-001
3	0	3.999999898951501E+000	4.5980135E-001
3	0	4.499999886320438E+000	4.5980120E-001
3	0	4.999999873689376E+000	4.5979869E-001
3	0	5.499999861058313E+000	4.5979920E-001
3	0	5.999999848427251E+000	4.5979920E-001
3	0	6.499999835796189E+000	4.5979968E-001
3	0	6.999999823165126E+000	4.5979977E-001
3	0	7.499999810534064E+000	4.5979640E-001
3	0	7.999999797903001E+000	4.5979944E-001
3	0	8.499999785271939E+000	4.5980173E-001
3	0	8.999999772640876E+000	4.5979914E-001
3	0	9.499999760009814E+000	4.5980179E-001
3	0	9.999999747378752E+000	4.5980203E-001
3	0	1.049999973474769E+001	4.5980066E-001
3	0	1.099999972211663E+001	4.5980433E-001
3	0	1.149999970948556E+001	4.5980275E-001
3	0	1.199999969685450E+001	4.5980296E-001
3	0	1.249999968422344E+001	4.5980534E-001
3	0	1.299999967159238E+001	4.5980451E-001
3	0	1.349999965896131E+001	4.5980442E-001
3	0	1.399999964633025E+001	4.5980647E-001
3	0	1.449999963369919E+001	4.5980603E-001
3	0	1.499999962106813E+001	4.5980588E-001
3	0	1.549999960843707E+001	4.5980769E-001
3	0	1.599999959580600E+001	4.5980442E-001
3	0	1.649999958317494E+001	4.5980594E-001
3	0	1.699999957054388E+001	4.5980701E-001
3	0	1.749999955791282E+001	4.5980611E-001
3	0	1.799999954528175E+001	4.5980740E-001
3	0	1.849999953265069E+001	4.5980218E-001
3	0	1.899999952001963E+001	4.5980090E-001
3	0	1.949999950738857E+001	4.5980173E-001
3	0	1.999999949475750E+001	4.5980313E-001
3	0	2.049999948212644E+001	4.5980501E-001
3	0	2.099999946949538E+001	4.5980778E-001
3	0	2.149999945686432E+001	4.5980611E-001
3	0	2.199999944423325E+001	4.5980924E-001
3	0	2.249999943160219E+001	4.5980909E-001
3	0	2.299999941897113E+001	4.5981205E-001
3	0	2.349999940634007E+001	4.5981160E-001
3	0	2.399999939370900E+001	4.5980868E-001
3	0	2.449999938107794E+001	4.5980442E-001
3	0	2.499999936844688E+001	4.5980433E-001
3	0	2.549999935581582E+001	4.5980403E-001
3	0	2.599999934318475E+001	4.5980221E-001
3	0	2.649999933055369E+001	4.5980152E-001
3	0	2.699999931792263E+001	4.5980367E-001
3	0	2.749999930529157E+001	4.5980358E-001
3	0	2.799999929266050E+001	4.5980221E-001
3	0	2.849999928002944E+001	4.5980042E-001
3	0	2.899999926739838E+001	4.5980206E-001
3	0	2.949999925476732E+001	4.5980504E-001
3	0	2.999999924213625E+001	4.5980495E-001
3	0	3.049999922950519E+001	4.5980242E-001
3	0	3.099999921687413E+001	4.5980111E-001
3	0	3.149999920424307E+001	4.5979998E-001
3	0	3.199999919161201E+001	4.5979792E-001
3	0	3.249999917898094E+001	4.5980105E-001
3	0	3.299999916634988E+001	4.5979768E-001
3	0	3.349999915371882E+001	4.5979676E-001
3	0	3.399999914108776E+001	4.5979446E-001
3	0	3.449999912845669E+001	4.5979586E-001
3	0	3.499999911582563E+001	4.5979705E-001
3	0	3.549999910319457E+001	4.5979524E-001
3	0	3.599999909056351E+001	4.5979753E-001
3	0	3.649999907793244E+001	4.5979494E-001
3	0	3.699999906530138E+001	4.5979369E-001
3	0	3.749999905267032E+001	4.5979318E-001
3	0	3.799999904003926E+001	4.5980301E-001
3	0	3.849999902740819E+001	4.5980388E-001
3	0	3.899999901477713E+001	4.5980296E-001
3	0	3.949999900214607E+001	4.5980197E-001
3	0	3.999999898951501E+001	4.5980173E-001
3	0	4.049999897688394E+001	4.5980129E-001
3	0	4.099999896425288E+001	4.5980319E-001
3	0	4.149999895162182E+001	4.5980301E-001
3	0	4.199999893899076E+001	4.5980090E-001
3	0	4.249999892635969E+001	4.5980227E-001
3	0	4.299999891372863E+001	4.5980051E-001
3	0	4.349999890109757E+001	4.5980233E-001
3	0	4.399999888846651E+001	4.5980126E-001
3	0	4.449999887583544E+001	4.5980135E-001
3	0	4.499999886320438E+001	4.5980242E-001
3	0	4.549999885057332E+001	4.5979935E-001
3	0	4.599999883794226E+001	4.5979676E-001
3	0	4.649999882531120E+001	4.5979747E-001
3	0	4.699999881268013E+001	4.5979998E-001
3	0	4.749999880004907E+001	4.5979962E-001
3	0	4.799999878741801E+001	4.5980114E-001
3	0	4.849999877478695E+001	4.5980281E-001
3	0	4.899999876215588E+001	4.5980144E-001
3	0	4.949999874952482E+001	4.5980090E-001
3	0	4.999999873689376E+001	4.5979944E-001
3	0	5.049999872426270E+001	4.5980152E-001
3	0	5.099999871163163E+001	4.5980111E-001
3	0	5.149999869900057E+001	4.5980105E-001
3	0	5.199999868636951E+001	4.5980382E-001
3	0	5.249999867373845E+001	4.5980409E-001
3	0	5.299999866110738E+001	4.5980471E-001
3	0	5.349999864847632E+001	4.5980772E-001
3	0	5.399999863584526E+001	4.5980909E-001
3	0	5.449999862321420E+001	4.5980880E-001
3	0	5.499999861058313E+001	4.5981085E-001
3	0	5.549999859795207E+001	4.5981145E-001
3	0	5.599999858532101E+001	4.5980853E-001
3	0	5.649999857268995E+001	4.5980418E-001
3	0	5.657639857075992E+001	4.5980498E-001