EC-Lab ASCII FILE
Nb header lines : 47                          

Open Circuit Voltage

Run on channel : 15 (SN 19485)
User : 
Electrode connection : standard
Potential control : Ewe
Ewe ctrl range : min = -1.00 V, max = 1.00 V
Ewe,I filtering : 50 kHz
Safety Limits :
	Do not start on E overload
Channel : Floating
Acquisition started on : 02/23/2024 16:29:27.631
Loaded Setting File :  NONE
Saved on :
	File : 240223-OCV-EIS-Fe2Fe3_5mM-HCl1M-0RPM-Ag_AgCl_BLF8-GC-RDE-1minRestVSEoc-3ppf-14p1mVAmplitude_05_OCV_C15.mpr
	Directory : C:\Data\mathias\RDE-RPM-variation\
	Host : 192.168.0.1
Device : VMP-300 (SN 0826)
Address : USB
EC-Lab for windows v11.52 (software)
Internet server v11.52 (firmware)
Command interpretor v11.52 (firmware)
Electrode material : 
Initial state : 
Electrolyte : 
Comments : 
Cable : special
Reference electrode : SCE Saturated Calomel Electrode (0.241 V)
Electrode surface area : 0.001 cm²
Characteristic mass : 0.001 g
Equivalent Weight : 0.000 g/eq.
Density : 0.000 g/cm3
Volume (V) : 0.001 cm³
Record EIS quality indicators
Cycle Definition : Charge/Discharge alternance
tR (h:m:s)          0:01:0.0000         
dER/dt (mV/h)       1.0                 
record              <Ewe>               
dER (mV)            0.00                
dtR (s)             0.5000              
E range min (V)     -1.000              
E range max (V)     1.000               

mode	error	time/s	<Ewe/V>	
3	0	9.648942370739678E+002	4.6113130E-001
3	0	9.653942370613368E+002	4.6014348E-001
3	0	9.658942370487057E+002	4.5989010E-001
3	0	9.663942370360746E+002	4.5977750E-001
3	0	9.668942370234436E+002	4.5971501E-001
3	0	9.673942370108125E+002	4.5967185E-001
3	0	9.678942369981814E+002	4.5964524E-001
3	0	9.683942369855504E+002	4.5962697E-001
3	0	9.688942369729193E+002	4.5961413E-001
3	0	9.693942369602883E+002	4.5959774E-001
3	0	9.698942369476572E+002	4.5958567E-001
3	0	9.703942369350261E+002	4.5957425E-001
3	0	9.708942369223951E+002	4.5956761E-001
3	0	9.713942369097640E+002	4.5956102E-001
3	0	9.718942368971329E+002	4.5955592E-001
3	0	9.723942368845019E+002	4.5955223E-001
3	0	9.728942368718708E+002	4.5954674E-001
3	0	9.733942368592398E+002	4.5954320E-001
3	0	9.738942368466087E+002	4.5953977E-001
3	0	9.743942368339776E+002	4.5953763E-001
3	0	9.748942368213466E+002	4.5953640E-001
3	0	9.753942368087155E+002	4.5953557E-001
3	0	9.758942367960844E+002	4.5953298E-001
3	0	9.763942367834534E+002	4.5953068E-001
3	0	9.768942367708223E+002	4.5952952E-001
3	0	9.773942367581913E+002	4.5952785E-001
3	0	9.778942367455602E+002	4.5952564E-001
3	0	9.783942367329291E+002	4.5952195E-001
3	0	9.788942367202981E+002	4.5952165E-001
3	0	9.793942367076670E+002	4.5951873E-001
3	0	9.798942366950359E+002	4.5951539E-001
3	0	9.803942366824049E+002	4.5951673E-001
3	0	9.808942366697738E+002	4.5951545E-001
3	0	9.813942366571428E+002	4.5951521E-001
3	0	9.818942366445117E+002	4.5951453E-001
3	0	9.823942366318806E+002	4.5951194E-001
3	0	9.828942366192496E+002	4.5951346E-001
3	0	9.833942366066185E+002	4.5951149E-001
3	0	9.838942365939874E+002	4.5951173E-001
3	0	9.843942365813564E+002	4.5951277E-001
3	0	9.848942365687253E+002	4.5951042E-001
3	0	9.853942365560943E+002	4.5950943E-001
3	0	9.858942365434632E+002	4.5950407E-001
3	0	9.863942365308321E+002	4.5950499E-001
3	0	9.868942365182011E+002	4.5950282E-001
3	0	9.873942365055700E+002	4.5950255E-001
3	0	9.878942364929389E+002	4.5950216E-001
3	0	9.883942364803079E+002	4.5950553E-001
3	0	9.888942364676768E+002	4.5950246E-001
3	0	9.893942364550458E+002	4.5950300E-001
3	0	9.898942364424147E+002	4.5950192E-001
3	0	9.903942364297836E+002	4.5949930E-001
3	0	9.908942364171526E+002	4.5949635E-001
3	0	9.913942364045215E+002	4.5949715E-001
3	0	9.918942363918904E+002	4.5949528E-001
3	0	9.923942363792594E+002	4.5949578E-001
3	0	9.928942363666283E+002	4.5949441E-001
3	0	9.933942363539973E+002	4.5949098E-001
3	0	9.938942363413662E+002	4.5949295E-001
3	0	9.943942363287351E+002	4.5949081E-001
3	0	9.948942363161041E+002	4.5949152E-001
3	0	9.953942363034730E+002	4.5949382E-001
3	0	9.958942362908419E+002	4.5949203E-001
3	0	9.963942362782109E+002	4.5949242E-001
3	0	9.968942362655798E+002	4.5949557E-001
3	0	9.973942362529488E+002	4.5949495E-001
3	0	9.978942362403177E+002	4.5949459E-001
3	0	9.983942362276866E+002	4.5949244E-001
3	0	9.988942362150556E+002	4.5949167E-001
3	0	9.993942362024245E+002	4.5949090E-001
3	0	9.998942361897934E+002	4.5949137E-001
3	0	1.000394236177162E+003	4.5948777E-001
3	0	1.000894236164531E+003	4.5948610E-001
3	0	1.001394236151900E+003	4.5948699E-001
3	0	1.001894236139269E+003	4.5948786E-001
3	0	1.002394236126638E+003	4.5948792E-001
3	0	1.002894236114007E+003	4.5948869E-001
3	0	1.003394236101376E+003	4.5949128E-001
3	0	1.003894236088745E+003	4.5948860E-001
3	0	1.004394236076114E+003	4.5948792E-001
3	0	1.004894236063483E+003	4.5948669E-001
3	0	1.005394236050852E+003	4.5948961E-001
3	0	1.005894236038221E+003	4.5948637E-001
3	0	1.006394236025590E+003	4.5948586E-001
3	0	1.006894236012959E+003	4.5948753E-001
3	0	1.007394236000328E+003	4.5948654E-001
3	0	1.007894235987696E+003	4.5948660E-001
3	0	1.008394235975065E+003	4.5948610E-001
3	0	1.008894235962434E+003	4.5948601E-001
3	0	1.009394235949803E+003	4.5948875E-001
3	0	1.009894235937172E+003	4.5948982E-001
3	0	1.010394235924541E+003	4.5948708E-001
3	0	1.010894235911910E+003	4.5948568E-001
3	0	1.011394235899279E+003	4.5948416E-001
3	0	1.011894235886648E+003	4.5948485E-001
3	0	1.012394235874017E+003	4.5948461E-001
3	0	1.012894235861386E+003	4.5948586E-001
3	0	1.013394235848755E+003	4.5948455E-001
3	0	1.013894235836124E+003	4.5948288E-001
3	0	1.014394235823493E+003	4.5948356E-001
3	0	1.014894235810862E+003	4.5948297E-001
3	0	1.015394235798231E+003	4.5948166E-001
3	0	1.015894235785599E+003	4.5948112E-001
3	0	1.016394235772968E+003	4.5947683E-001
3	0	1.016894235760337E+003	4.5947704E-001
3	0	1.017394235747706E+003	4.5948121E-001
3	0	1.017894235735075E+003	4.5948088E-001
3	0	1.018394235722444E+003	4.5948270E-001
3	0	1.018894235709813E+003	4.5948234E-001
3	0	1.019394235697182E+003	4.5947766E-001
3	0	1.019894235684551E+003	4.5947760E-001
3	0	1.020394235671920E+003	4.5947737E-001
3	0	1.020894235659289E+003	4.5947585E-001
3	0	1.021394235646658E+003	4.5947897E-001
3	0	1.021894235634027E+003	4.5947728E-001
3	0	1.022394235621396E+003	4.5947415E-001
3	0	1.022894235608765E+003	4.5947194E-001
3	0	1.023394235596134E+003	4.5947233E-001
3	0	1.023894235583502E+003	4.5947346E-001
3	0	1.024394235570871E+003	4.5947379E-001
3	0	1.024553435566850E+003	4.5947731E-001