EC-Lab ASCII FILE
Nb header lines : 47                          

Open Circuit Voltage

Run on channel : 15 (SN 19485)
User : 
Electrode connection : standard
Potential control : Ewe
Ewe ctrl range : min = -1.00 V, max = 1.00 V
Ewe,I filtering : 50 kHz
Safety Limits :
	Do not start on E overload
Channel : Floating
Acquisition started on : 02/23/2024 12:36:41.987
Loaded Setting File :  C:\Data\mathias\RDE-RPM-variation\240222-CV-EIS-Fe2Fe3_5mM-HCl1M-0RPM-Ag_AgCl_BLF8-GC-RDE-DefaultSettings.mps
Saved on :
	File : 240223-OCV-EIS-Fe2Fe3_5mM-HCl1M-2000RPM-Ag_AgCl_BLF8-GC-RDE-AllPreviousVariations_03_OCV_C15.mpr
	Directory : C:\Data\mathias\RDE-RPM-variation\
	Host : 192.168.0.1
Device : VMP-300 (SN 0826)
Address : USB
EC-Lab for windows v11.52 (software)
Internet server v11.52 (firmware)
Command interpretor v11.52 (firmware)
Electrode material : 
Initial state : 
Electrolyte : 
Comments : 
Cable : special
Reference electrode : SCE Saturated Calomel Electrode (0.241 V)
Electrode surface area : 0.001 cm²
Characteristic mass : 0.001 g
Equivalent Weight : 0.000 g/eq.
Density : 0.000 g/cm3
Volume (V) : 0.001 cm³
Record EIS quality indicators
Cycle Definition : Charge/Discharge alternance
tR (h:m:s)          0:01:0.0000         
dER/dt (mV/h)       1.0                 
record              <Ewe>               
dER (mV)            0.00                
dtR (s)             0.5000              
E range min (V)     -1.000              
E range max (V)     1.000               

mode	error	time/s	<Ewe/V>	
3	0	3.571229909783142E+002	4.5887277E-001
3	0	3.576229909656831E+002	4.5910665E-001
3	0	3.581229909530521E+002	4.5926419E-001
3	0	3.586229909404210E+002	4.5936593E-001
3	0	3.591229909277899E+002	4.5944098E-001
3	0	3.596229909151589E+002	4.5949572E-001
3	0	3.601229909025278E+002	4.5954290E-001
3	0	3.606229908898968E+002	4.5958063E-001
3	0	3.611229908772657E+002	4.5961183E-001
3	0	3.616229908646346E+002	4.5963967E-001
3	0	3.621229908520036E+002	4.5966446E-001
3	0	3.626229908393725E+002	4.5968539E-001
3	0	3.631229908267414E+002	4.5970124E-001
3	0	3.636229908141104E+002	4.5971930E-001
3	0	3.641229908014793E+002	4.5973244E-001
3	0	3.646229907888483E+002	4.5974591E-001
3	0	3.651229907762172E+002	4.5976052E-001
3	0	3.656229907635861E+002	4.5976952E-001
3	0	3.661229907509551E+002	4.5977697E-001
3	0	3.666229907383240E+002	4.5978302E-001
3	0	3.671229907256929E+002	4.5979011E-001
3	0	3.676229907130619E+002	4.5979881E-001
3	0	3.681229907004308E+002	4.5980594E-001
3	0	3.686229906877998E+002	4.5981082E-001
3	0	3.691229906751687E+002	4.5981818E-001
3	0	3.696229906625376E+002	4.5982030E-001
3	0	3.701229906499066E+002	4.5982811E-001
3	0	3.706229906372755E+002	4.5983064E-001
3	0	3.711229906246444E+002	4.5982948E-001
3	0	3.716229906120134E+002	4.5983240E-001
3	0	3.721229905993823E+002	4.5983341E-001
3	0	3.726229905867513E+002	4.5983723E-001
3	0	3.731229905741202E+002	4.5984098E-001
3	0	3.736229905614891E+002	4.5984563E-001
3	0	3.741229905488581E+002	4.5984972E-001
3	0	3.746229905362270E+002	4.5984846E-001
3	0	3.751229905235959E+002	4.5984915E-001
3	0	3.756229905109649E+002	4.5984894E-001
3	0	3.761229904983338E+002	4.5985323E-001
3	0	3.766229904857028E+002	4.5985651E-001
3	0	3.771229904730717E+002	4.5985717E-001
3	0	3.776229904604406E+002	4.5985886E-001
3	0	3.781229904478096E+002	4.5985851E-001
3	0	3.786229904351785E+002	4.5985886E-001
3	0	3.791229904225474E+002	4.5986146E-001
3	0	3.796229904099164E+002	4.5986331E-001
3	0	3.801229903972853E+002	4.5986566E-001
3	0	3.806229903846543E+002	4.5986754E-001
3	0	3.811229903720232E+002	4.5986798E-001
3	0	3.816229903593921E+002	4.5987150E-001
3	0	3.821229903467611E+002	4.5987540E-001
3	0	3.826229903341300E+002	4.5987755E-001
3	0	3.831229903214989E+002	4.5987701E-001
3	0	3.836229903088679E+002	4.5987472E-001
3	0	3.841229902962368E+002	4.5987546E-001
3	0	3.846229902836058E+002	4.5987976E-001
3	0	3.851229902709747E+002	4.5987922E-001
3	0	3.856229902583436E+002	4.5988119E-001
3	0	3.861229902457126E+002	4.5988011E-001
3	0	3.866229902330815E+002	4.5988372E-001
3	0	3.871229902204504E+002	4.5988166E-001
3	0	3.876229902078194E+002	4.5988294E-001
3	0	3.881229901951883E+002	4.5988518E-001
3	0	3.886229901825573E+002	4.5988402E-001
3	0	3.891229901699262E+002	4.5988488E-001
3	0	3.896229901572951E+002	4.5988142E-001
3	0	3.901229901446641E+002	4.5988098E-001
3	0	3.906229901320330E+002	4.5988098E-001
3	0	3.911229901194019E+002	4.5987970E-001
3	0	3.916229901067709E+002	4.5988059E-001
3	0	3.921229900941398E+002	4.5987967E-001
3	0	3.926229900815088E+002	4.5988250E-001
3	0	3.931229900688777E+002	4.5988119E-001
3	0	3.936229900562466E+002	4.5988074E-001
3	0	3.941229900436156E+002	4.5988038E-001
3	0	3.946229900309845E+002	4.5988357E-001
3	0	3.951229900183534E+002	4.5988396E-001
3	0	3.956229900057224E+002	4.5987952E-001
3	0	3.961229899930913E+002	4.5988166E-001
3	0	3.966229899804603E+002	4.5988244E-001
3	0	3.971229899678292E+002	4.5988601E-001
3	0	3.976229899551981E+002	4.5988587E-001
3	0	3.981229899425671E+002	4.5988756E-001
3	0	3.986229899299360E+002	4.5989117E-001
3	0	3.991229899173049E+002	4.5988914E-001
3	0	3.996229899046739E+002	4.5988825E-001
3	0	4.001229898920428E+002	4.5988977E-001
3	0	4.006229898794118E+002	4.5988908E-001
3	0	4.011229898667807E+002	4.5989025E-001
3	0	4.016229898541496E+002	4.5989254E-001
3	0	4.021229898415186E+002	4.5989221E-001
3	0	4.026229898288875E+002	4.5988840E-001
3	0	4.031229898162565E+002	4.5988795E-001
3	0	4.036229898036254E+002	4.5988983E-001
3	0	4.041229897909943E+002	4.5988917E-001
3	0	4.046229897783633E+002	4.5989040E-001
3	0	4.051229897657322E+002	4.5989075E-001
3	0	4.056229897531011E+002	4.5989078E-001
3	0	4.061229897404701E+002	4.5988998E-001
3	0	4.066229897278390E+002	4.5989054E-001
3	0	4.071229897152080E+002	4.5989153E-001
3	0	4.076229897025769E+002	4.5989275E-001
3	0	4.081229896899458E+002	4.5988971E-001
3	0	4.086229896773148E+002	4.5988983E-001
3	0	4.091229896646837E+002	4.5988846E-001
3	0	4.096229896520526E+002	4.5988971E-001
3	0	4.101229896394216E+002	4.5988908E-001
3	0	4.106229896267905E+002	4.5988983E-001
3	0	4.111229896141595E+002	4.5989046E-001
3	0	4.116229896015284E+002	4.5988753E-001
3	0	4.121229895888973E+002	4.5988646E-001
3	0	4.126229895762663E+002	4.5988747E-001
3	0	4.131229895636352E+002	4.5988542E-001
3	0	4.136229895510041E+002	4.5988604E-001
3	0	4.141229895383731E+002	4.5988801E-001
3	0	4.146229895257420E+002	4.5988932E-001
3	0	4.151229895131110E+002	4.5988747E-001
3	0	4.156229895004799E+002	4.5988712E-001
3	0	4.161229894878488E+002	4.5988712E-001
3	0	4.166229894752178E+002	4.5988396E-001
3	0	4.166731894739496E+002	4.5988888E-001