EC-Lab ASCII FILE
Nb header lines : 47                          

Open Circuit Voltage

Run on channel : 15 (SN 19485)
User : 
Electrode connection : standard
Potential control : Ewe
Ewe ctrl range : min = -1.00 V, max = 1.00 V
Ewe,I filtering : 50 kHz
Safety Limits :
	Do not start on E overload
Channel : Floating
Acquisition started on : 02/23/2024 12:36:41.987
Loaded Setting File :  C:\Data\mathias\RDE-RPM-variation\240222-CV-EIS-Fe2Fe3_5mM-HCl1M-0RPM-Ag_AgCl_BLF8-GC-RDE-DefaultSettings.mps
Saved on :
	File : 240223-OCV-EIS-Fe2Fe3_5mM-HCl1M-2000RPM-Ag_AgCl_BLF8-GC-RDE-AllPreviousVariations_09_OCV_C15.mpr
	Directory : C:\Data\mathias\RDE-RPM-variation\
	Host : 192.168.0.1
Device : VMP-300 (SN 0826)
Address : USB
EC-Lab for windows v11.52 (software)
Internet server v11.52 (firmware)
Command interpretor v11.52 (firmware)
Electrode material : 
Initial state : 
Electrolyte : 
Comments : 
Cable : special
Reference electrode : SCE Saturated Calomel Electrode (0.241 V)
Electrode surface area : 0.001 cm²
Characteristic mass : 0.001 g
Equivalent Weight : 0.000 g/eq.
Density : 0.000 g/cm3
Volume (V) : 0.001 cm³
Record EIS quality indicators
Cycle Definition : Charge/Discharge alternance
tR (h:m:s)          0:01:0.0000         
dER/dt (mV/h)       1.0                 
record              <Ewe>               
dER (mV)            0.00                
dtR (s)             0.5000              
E range min (V)     -1.000              
E range max (V)     1.000               

mode	error	time/s	<Ewe/V>	
3	0	4.858134391680374E+003	4.0378338E-001
3	0	4.858634391674321E+003	4.4195983E-001
3	0	4.859134391668267E+003	4.5007619E-001
3	0	4.859634391662214E+003	4.5318860E-001
3	0	4.860134391656160E+003	4.5484397E-001
3	0	4.860634391650106E+003	4.5586014E-001
3	0	4.861134391644053E+003	4.5654073E-001
3	0	4.861634391637999E+003	4.5703021E-001
3	0	4.862134391631946E+003	4.5739269E-001
3	0	4.862634391625892E+003	4.5766950E-001
3	0	4.863134391619838E+003	4.5789191E-001
3	0	4.863634391613785E+003	4.5806727E-001
3	0	4.864134391607731E+003	4.5821315E-001
3	0	4.864634391601678E+003	4.5833674E-001
3	0	4.865134391595624E+003	4.5844227E-001
3	0	4.865634391589570E+003	4.5853621E-001
3	0	4.866134391583517E+003	4.5861569E-001
3	0	4.866634391577463E+003	4.5868519E-001
3	0	4.867134391571410E+003	4.5874572E-001
3	0	4.867634391565356E+003	4.5880100E-001
3	0	4.868134391559302E+003	4.5885387E-001
3	0	4.868634391553249E+003	4.5889759E-001
3	0	4.869134391547195E+003	4.5893553E-001
3	0	4.869634391541142E+003	4.5897472E-001
3	0	4.870134391535088E+003	4.5901090E-001
3	0	4.870634391529034E+003	4.5904270E-001
3	0	4.871134391522981E+003	4.5907009E-001
3	0	4.871634391516927E+003	4.5909464E-001
3	0	4.872134391510874E+003	4.5912230E-001
3	0	4.872634391504820E+003	4.5914426E-001
3	0	4.873134391498766E+003	4.5916563E-001
3	0	4.873634391492713E+003	4.5918596E-001
3	0	4.874134391486659E+003	4.5920387E-001
3	0	4.874634391480606E+003	4.5922142E-001
3	0	4.875134391474552E+003	4.5923629E-001
3	0	4.875634391468499E+003	4.5925090E-001
3	0	4.876134391462445E+003	4.5926598E-001
3	0	4.876634391456391E+003	4.5928064E-001
3	0	4.877134391450338E+003	4.5929298E-001
3	0	4.877634391444284E+003	4.5930496E-001
3	0	4.878134391438231E+003	4.5931780E-001
3	0	4.878634391432177E+003	4.5932916E-001
3	0	4.879134391426123E+003	4.5933914E-001
3	0	4.879634391420070E+003	4.5935008E-001
3	0	4.880134391414016E+003	4.5935822E-001
3	0	4.880634391407963E+003	4.5936623E-001
3	0	4.881134391401909E+003	4.5937693E-001
3	0	4.881634391395855E+003	4.5938373E-001
3	0	4.882134391389802E+003	4.5939362E-001
3	0	4.882634391383748E+003	4.5939925E-001
3	0	4.883134391377695E+003	4.5940593E-001
3	0	4.883634391371641E+003	4.5941129E-001
3	0	4.884134391365587E+003	4.5941785E-001
3	0	4.884634391359534E+003	4.5942649E-001
3	0	4.885134391353480E+003	4.5943382E-001
3	0	4.885634391347427E+003	4.5943752E-001
3	0	4.886134391341373E+003	4.5944151E-001
3	0	4.886634391335319E+003	4.5944867E-001
3	0	4.887134391329266E+003	4.5945495E-001
3	0	4.887634391323212E+003	4.5945922E-001
3	0	4.888134391317159E+003	4.5946541E-001
3	0	4.888634391311105E+003	4.5946941E-001
3	0	4.889134391305051E+003	4.5947468E-001
3	0	4.889634391298998E+003	4.5947829E-001
3	0	4.890134391292944E+003	4.5948273E-001
3	0	4.890634391286891E+003	4.5949152E-001
3	0	4.891134391280837E+003	4.5949495E-001
3	0	4.891634391274783E+003	4.5950055E-001
3	0	4.892134391268730E+003	4.5950460E-001
3	0	4.892634391262676E+003	4.5950672E-001
3	0	4.893134391256623E+003	4.5951062E-001
3	0	4.893634391250569E+003	4.5951569E-001
3	0	4.894134391244515E+003	4.5952079E-001
3	0	4.894634391238462E+003	4.5952439E-001
3	0	4.895134391232408E+003	4.5952863E-001
3	0	4.895634391226355E+003	4.5953023E-001
3	0	4.896134391220301E+003	4.5953390E-001
3	0	4.896634391214247E+003	4.5953611E-001
3	0	4.897134391208194E+003	4.5953855E-001
3	0	4.897634391202140E+003	4.5953923E-001
3	0	4.898134391196087E+003	4.5954290E-001
3	0	4.898634391190033E+003	4.5954773E-001
3	0	4.899134391183979E+003	4.5955124E-001
3	0	4.899634391177926E+003	4.5955354E-001
3	0	4.900134391171872E+003	4.5955506E-001
3	0	4.900634391165819E+003	4.5955670E-001
3	0	4.901134391159765E+003	4.5955926E-001
3	0	4.901634391153711E+003	4.5956033E-001
3	0	4.902134391147658E+003	4.5956716E-001
3	0	4.902634391141604E+003	4.5957112E-001
3	0	4.903134391135551E+003	4.5957440E-001
3	0	4.903634391129497E+003	4.5957628E-001
3	0	4.904134391123443E+003	4.5957166E-001
3	0	4.904634391117390E+003	4.5957413E-001
3	0	4.905134391111336E+003	4.5957693E-001
3	0	4.905634391105283E+003	4.5958087E-001
3	0	4.906134391099229E+003	4.5958367E-001
3	0	4.906634391093176E+003	4.5958650E-001
3	0	4.907134391087122E+003	4.5958650E-001
3	0	4.907634391081068E+003	4.5959362E-001
3	0	4.908134391075015E+003	4.5959744E-001
3	0	4.908634391068961E+003	4.5959538E-001
3	0	4.909134391062908E+003	4.5959666E-001
3	0	4.909634391056854E+003	4.5959464E-001
3	0	4.910134391050800E+003	4.5959881E-001
3	0	4.910634391044747E+003	4.5959923E-001
3	0	4.911134391038693E+003	4.5960060E-001
3	0	4.911634391032640E+003	4.5960033E-001
3	0	4.912134391026586E+003	4.5960280E-001
3	0	4.912634391020532E+003	4.5960379E-001
3	0	4.913134391014479E+003	4.5960471E-001
3	0	4.913634391008425E+003	4.5960724E-001
3	0	4.914134391002372E+003	4.5961073E-001
3	0	4.914634390996318E+003	4.5960999E-001
3	0	4.915134390990264E+003	4.5961097E-001
3	0	4.915634390984211E+003	4.5961544E-001
3	0	4.916134390978157E+003	4.5961896E-001
3	0	4.916634390972104E+003	4.5961925E-001
3	0	4.917134390966050E+003	4.5961854E-001
3	0	4.917634390959996E+003	4.5961916E-001
3	0	4.917792790958076E+003	4.5962113E-001