EC-Lab ASCII FILE
Nb header lines : 47                          

Open Circuit Voltage

Run on channel : 15 (SN 19485)
User : 
Electrode connection : standard
Potential control : Ewe
Ewe ctrl range : min = -1.00 V, max = 1.00 V
Ewe,I filtering : 50 kHz
Safety Limits :
	Do not start on E overload
Channel : Floating
Acquisition started on : 02/23/2024 16:29:27.631
Loaded Setting File :  NONE
Saved on :
	File : 240223-OCV-EIS-Fe2Fe3_5mM-HCl1M-0RPM-Ag_AgCl_BLF8-GC-RDE-1minRestVSEoc-3ppf-14p1mVAmplitude_07_OCV_C15.mpr
	Directory : C:\Data\mathias\RDE-RPM-variation\
	Host : 192.168.0.1
Device : VMP-300 (SN 0826)
Address : USB
EC-Lab for windows v11.52 (software)
Internet server v11.52 (firmware)
Command interpretor v11.52 (firmware)
Electrode material : 
Initial state : 
Electrolyte : 
Comments : 
Cable : special
Reference electrode : SCE Saturated Calomel Electrode (0.241 V)
Electrode surface area : 0.001 cm²
Characteristic mass : 0.001 g
Equivalent Weight : 0.000 g/eq.
Density : 0.000 g/cm3
Volume (V) : 0.001 cm³
Record EIS quality indicators
Cycle Definition : Charge/Discharge alternance
tR (h:m:s)          0:01:0.0000         
dER/dt (mV/h)       1.0                 
record              <Ewe>               
dER (mV)            0.00                
dtR (s)             0.5000              
E range min (V)     -1.000              
E range max (V)     1.000               

mode	error	time/s	<Ewe/V>	
3	0	1.447168855615091E+003	4.5814750E-001
3	0	1.447668855602460E+003	4.5862117E-001
3	0	1.448168855589829E+003	4.5879495E-001
3	0	1.448668855577198E+003	4.5888567E-001
3	0	1.449168855564567E+003	4.5894235E-001
3	0	1.449668855551936E+003	4.5898318E-001
3	0	1.450168855539305E+003	4.5901561E-001
3	0	1.450668855526674E+003	4.5903718E-001
3	0	1.451168855514043E+003	4.5905694E-001
3	0	1.451668855501412E+003	4.5907477E-001
3	0	1.452168855488781E+003	4.5909110E-001
3	0	1.452668855476149E+003	4.5910609E-001
3	0	1.453168855463518E+003	4.5911863E-001
3	0	1.453668855450887E+003	4.5912743E-001
3	0	1.454168855438256E+003	4.5913488E-001
3	0	1.454668855425625E+003	4.5914549E-001
3	0	1.455168855412994E+003	4.5915422E-001
3	0	1.455668855400363E+003	4.5916349E-001
3	0	1.456168855387732E+003	4.5917067E-001
3	0	1.456668855375101E+003	4.5917594E-001
3	0	1.457168855362470E+003	4.5917982E-001
3	0	1.457668855349839E+003	4.5918372E-001
3	0	1.458168855337208E+003	4.5918849E-001
3	0	1.458668855324577E+003	4.5918870E-001
3	0	1.459168855311946E+003	4.5919207E-001
3	0	1.459668855299315E+003	4.5919353E-001
3	0	1.460168855286684E+003	4.5919681E-001
3	0	1.460668855274052E+003	4.5920086E-001
3	0	1.461168855261421E+003	4.5920226E-001
3	0	1.461668855248790E+003	4.5920536E-001
3	0	1.462168855236159E+003	4.5920685E-001
3	0	1.462668855223528E+003	4.5920822E-001
3	0	1.463168855210897E+003	4.5921454E-001
3	0	1.463668855198266E+003	4.5921624E-001
3	0	1.464168855185635E+003	4.5922253E-001
3	0	1.464668855173004E+003	4.5922679E-001
3	0	1.465168855160373E+003	4.5923045E-001
3	0	1.465668855147742E+003	4.5923033E-001
3	0	1.466168855135111E+003	4.5923376E-001
3	0	1.466668855122480E+003	4.5923856E-001
3	0	1.467168855109849E+003	4.5924088E-001
3	0	1.467668855097218E+003	4.5923856E-001
3	0	1.468168855084587E+003	4.5923963E-001
3	0	1.468668855071955E+003	4.5924041E-001
3	0	1.469168855059324E+003	4.5924011E-001
3	0	1.469668855046693E+003	4.5924270E-001
3	0	1.470168855034062E+003	4.5924392E-001
3	0	1.470668855021431E+003	4.5924452E-001
3	0	1.471168855008800E+003	4.5924431E-001
3	0	1.471668854996169E+003	4.5924792E-001
3	0	1.472168854983538E+003	4.5925060E-001
3	0	1.472668854970907E+003	4.5925006E-001
3	0	1.473168854958276E+003	4.5925221E-001
3	0	1.473668854945645E+003	4.5925435E-001
3	0	1.474168854933014E+003	4.5925710E-001
3	0	1.474668854920383E+003	4.5926017E-001
3	0	1.475168854907752E+003	4.5926258E-001
3	0	1.475668854895121E+003	4.5926154E-001
3	0	1.476168854882490E+003	4.5926312E-001
3	0	1.476668854869858E+003	4.5926222E-001
3	0	1.477168854857227E+003	4.5926321E-001
3	0	1.477668854844596E+003	4.5926732E-001
3	0	1.478168854831965E+003	4.5926833E-001
3	0	1.478668854819334E+003	4.5926908E-001
3	0	1.479168854806703E+003	4.5927218E-001
3	0	1.479668854794072E+003	4.5927247E-001
3	0	1.480168854781441E+003	4.5927760E-001
3	0	1.480668854768810E+003	4.5927864E-001
3	0	1.481168854756179E+003	4.5927703E-001
3	0	1.481668854743548E+003	4.5927751E-001
3	0	1.482168854730917E+003	4.5927620E-001
3	0	1.482668854718286E+003	4.5927787E-001
3	0	1.483168854705655E+003	4.5927829E-001
3	0	1.483668854693024E+003	4.5927772E-001
3	0	1.484168854680393E+003	4.5927888E-001
3	0	1.484668854667761E+003	4.5927963E-001
3	0	1.485168854655130E+003	4.5928133E-001
3	0	1.485668854642499E+003	4.5928133E-001
3	0	1.486168854629868E+003	4.5928079E-001
3	0	1.486668854617237E+003	4.5928124E-001
3	0	1.487168854604606E+003	4.5928201E-001
3	0	1.487668854591975E+003	4.5928136E-001
3	0	1.488168854579344E+003	4.5928323E-001
3	0	1.488668854566713E+003	4.5928380E-001
3	0	1.489168854554082E+003	4.5928380E-001
3	0	1.489668854541451E+003	4.5928514E-001
3	0	1.490168854528820E+003	4.5928934E-001
3	0	1.490668854516189E+003	4.5929015E-001
3	0	1.491168854503558E+003	4.5929006E-001
3	0	1.491668854490927E+003	4.5928839E-001
3	0	1.492168854478296E+003	4.5928890E-001
3	0	1.492668854465664E+003	4.5929030E-001
3	0	1.493168854453033E+003	4.5928961E-001
3	0	1.493668854440402E+003	4.5929128E-001
3	0	1.494168854427771E+003	4.5929202E-001
3	0	1.494668854415140E+003	4.5929250E-001
3	0	1.495168854402509E+003	4.5929357E-001
3	0	1.495668854389878E+003	4.5929432E-001
3	0	1.496168854377247E+003	4.5929420E-001
3	0	1.496668854364616E+003	4.5929447E-001
3	0	1.497168854351985E+003	4.5929432E-001
3	0	1.497668854339354E+003	4.5929876E-001
3	0	1.498168854326723E+003	4.5929933E-001
3	0	1.498668854314092E+003	4.5930013E-001
3	0	1.499168854301461E+003	4.5929962E-001
3	0	1.499668854288830E+003	4.5930135E-001
3	0	1.500168854276199E+003	4.5929939E-001
3	0	1.500668854263567E+003	4.5930091E-001
3	0	1.501168854250936E+003	4.5930129E-001
3	0	1.501668854238305E+003	4.5930427E-001
3	0	1.502168854225674E+003	4.5930505E-001
3	0	1.502668854213043E+003	4.5930436E-001
3	0	1.503168854200412E+003	4.5930246E-001
3	0	1.503668854187781E+003	4.5930499E-001
3	0	1.504168854175150E+003	4.5930672E-001
3	0	1.504668854162519E+003	4.5930687E-001
3	0	1.505168854149888E+003	4.5930803E-001
3	0	1.505668854137257E+003	4.5930916E-001
3	0	1.506168854124626E+003	4.5930985E-001
3	0	1.506668854111995E+003	4.5931053E-001
3	0	1.506827254107993E+003	4.5931220E-001