EC-Lab ASCII FILE
Nb header lines : 47                          

Open Circuit Voltage

Run on channel : 15 (SN 19485)
User : 
Electrode connection : standard
Potential control : Ewe
Ewe ctrl range : min = -1.00 V, max = 1.00 V
Ewe,I filtering : 50 kHz
Safety Limits :
	Do not start on E overload
Channel : Floating
Acquisition started on : 02/23/2024 15:54:32.363
Loaded Setting File :  NONE
Saved on :
	File : 240223-OCV-EIS-Fe2Fe3_5mM-HCl1M-225RPM-Ag_AgCl_BLF8-GC-RDE-1minRestVSEoc-3ppf-14p1mVAmplitude_03_OCV_C15.mpr
	Directory : C:\Data\mathias\RDE-RPM-variation\
	Host : 192.168.0.1
Device : VMP-300 (SN 0826)
Address : USB
EC-Lab for windows v11.52 (software)
Internet server v11.52 (firmware)
Command interpretor v11.52 (firmware)
Electrode material : 
Initial state : 
Electrolyte : 
Comments : 
Cable : special
Reference electrode : SCE Saturated Calomel Electrode (0.241 V)
Electrode surface area : 0.001 cm²
Characteristic mass : 0.001 g
Equivalent Weight : 0.000 g/eq.
Density : 0.000 g/cm3
Volume (V) : 0.001 cm³
Record EIS quality indicators
Cycle Definition : Charge/Discharge alternance
tR (h:m:s)          0:01:0.0000         
dER/dt (mV/h)       1.0                 
record              <Ewe>               
dER (mV)            0.00                
dtR (s)             0.5000              
E range min (V)     -1.000              
E range max (V)     1.000               

mode	error	time/s	<Ewe/V>	
3	0	4.791930186191166E+002	4.5865905E-001
3	0	4.796930186064856E+002	4.5938900E-001
3	0	4.801930185938545E+002	4.5953992E-001
3	0	4.806930185812234E+002	4.5959431E-001
3	0	4.811930185685924E+002	4.5962000E-001
3	0	4.816930185559613E+002	4.5963040E-001
3	0	4.821930185433303E+002	4.5963532E-001
3	0	4.826930185306992E+002	4.5963806E-001
3	0	4.831930185180681E+002	4.5964056E-001
3	0	4.836930185054371E+002	4.5964324E-001
3	0	4.841930184928060E+002	4.5964465E-001
3	0	4.846930184801749E+002	4.5964685E-001
3	0	4.851930184675439E+002	4.5964816E-001
3	0	4.856930184549128E+002	4.5964855E-001
3	0	4.861930184422818E+002	4.5964539E-001
3	0	4.866930184296507E+002	4.5964396E-001
3	0	4.871930184170196E+002	4.5964134E-001
3	0	4.876930184043886E+002	4.5964134E-001
3	0	4.881930183917575E+002	4.5964104E-001
3	0	4.886930183791264E+002	4.5964363E-001
3	0	4.891930183664954E+002	4.5964694E-001
3	0	4.896930183538643E+002	4.5964241E-001
3	0	4.901930183412333E+002	4.5964366E-001
3	0	4.906930183286022E+002	4.5963991E-001
3	0	4.911930183159711E+002	4.5964041E-001
3	0	4.916930183033401E+002	4.5964342E-001
3	0	4.921930182907090E+002	4.5964205E-001
3	0	4.926930182780779E+002	4.5964152E-001
3	0	4.931930182654469E+002	4.5964441E-001
3	0	4.936930182528158E+002	4.5964217E-001
3	0	4.941930182401848E+002	4.5964563E-001
3	0	4.946930182275537E+002	4.5964801E-001
3	0	4.951930182149226E+002	4.5964840E-001
3	0	4.956930182022916E+002	4.5964777E-001
3	0	4.961930181896605E+002	4.5964831E-001
3	0	4.966930181770294E+002	4.5964909E-001
3	0	4.971930181643984E+002	4.5964998E-001
3	0	4.976930181517673E+002	4.5964748E-001
3	0	4.981930181391363E+002	4.5964572E-001
3	0	4.986930181265052E+002	4.5964655E-001
3	0	4.991930181138741E+002	4.5964456E-001
3	0	4.996930181012431E+002	4.5963976E-001
3	0	5.001930180886120E+002	4.5963821E-001
3	0	5.006930180759809E+002	4.5963812E-001
3	0	5.011930180633499E+002	4.5963651E-001
3	0	5.016930180507188E+002	4.5963508E-001
3	0	5.021930180380878E+002	4.5963395E-001
3	0	5.026930180254567E+002	4.5963162E-001
3	0	5.031930180128256E+002	4.5963654E-001
3	0	5.036930180001946E+002	4.5963606E-001
3	0	5.041930179875635E+002	4.5963156E-001
3	0	5.046930179749324E+002	4.5963195E-001
3	0	5.051930179623014E+002	4.5963234E-001
3	0	5.056930179496703E+002	4.5963097E-001
3	0	5.061930179370393E+002	4.5963371E-001
3	0	5.066930179244082E+002	4.5963392E-001
3	0	5.071930179117771E+002	4.5963609E-001
3	0	5.076930178991461E+002	4.5962840E-001
3	0	5.081930178865150E+002	4.5962936E-001
3	0	5.086930178738839E+002	4.5962965E-001
3	0	5.091930178612529E+002	4.5963445E-001
3	0	5.096930178486218E+002	4.5963475E-001
3	0	5.101930178359908E+002	4.5963639E-001
3	0	5.106930178233597E+002	4.5963484E-001
3	0	5.111930178107286E+002	4.5963261E-001
3	0	5.116930177980976E+002	4.5963165E-001
3	0	5.121930177854665E+002	4.5963001E-001
3	0	5.126930177728354E+002	4.5962965E-001
3	0	5.131930177602044E+002	4.5962811E-001
3	0	5.136930177475733E+002	4.5963323E-001
3	0	5.141930177349423E+002	4.5962873E-001
3	0	5.146930177223112E+002	4.5962909E-001
3	0	5.151930177096801E+002	4.5963132E-001
3	0	5.156930176970491E+002	4.5963040E-001
3	0	5.161930176844180E+002	4.5962703E-001
3	0	5.166930176717869E+002	4.5962742E-001
3	0	5.171930176591559E+002	4.5962912E-001
3	0	5.176930176465248E+002	4.5962989E-001
3	0	5.181930176338938E+002	4.5962703E-001
3	0	5.186930176212627E+002	4.5962316E-001
3	0	5.191930176086316E+002	4.5962790E-001
3	0	5.196930175960006E+002	4.5962986E-001
3	0	5.201930175833695E+002	4.5963004E-001
3	0	5.206930175707384E+002	4.5962772E-001
3	0	5.211930175581074E+002	4.5962718E-001
3	0	5.216930175454763E+002	4.5962781E-001
3	0	5.221930175328453E+002	4.5963371E-001
3	0	5.226930175202142E+002	4.5963156E-001
3	0	5.231930175075831E+002	4.5962727E-001
3	0	5.236930174949521E+002	4.5962805E-001
3	0	5.241930174823210E+002	4.5962545E-001
3	0	5.246930174696899E+002	4.5962361E-001
3	0	5.251930174570589E+002	4.5962009E-001
3	0	5.256930174444278E+002	4.5961419E-001
3	0	5.261930174317968E+002	4.5961243E-001
3	0	5.266930174191657E+002	4.5961100E-001
3	0	5.271930174065346E+002	4.5960647E-001
3	0	5.276930173939036E+002	4.5960945E-001
3	0	5.281930173812725E+002	4.5960990E-001
3	0	5.286930173686414E+002	4.5960960E-001
3	0	5.291930173560104E+002	4.5960975E-001
3	0	5.296930173433793E+002	4.5961013E-001
3	0	5.301930173307483E+002	4.5960844E-001
3	0	5.306930173181172E+002	4.5960969E-001
3	0	5.311930173054861E+002	4.5961100E-001
3	0	5.316930172928551E+002	4.5960492E-001
3	0	5.321930172802240E+002	4.5960692E-001
3	0	5.326930172675930E+002	4.5960739E-001
3	0	5.331930172549619E+002	4.5960733E-001
3	0	5.336930172423308E+002	4.5960456E-001
3	0	5.341930172296998E+002	4.5960563E-001
3	0	5.346930172170687E+002	4.5960668E-001
3	0	5.351930172044376E+002	4.5960209E-001
3	0	5.356930171918066E+002	4.5960125E-001
3	0	5.361930171791755E+002	4.5960042E-001
3	0	5.366930171665445E+002	4.5959952E-001
3	0	5.371930171539134E+002	4.5959803E-001
3	0	5.376930171412823E+002	4.5959494E-001
3	0	5.381930171286513E+002	4.5960027E-001
3	0	5.386930171160202E+002	4.5959914E-001
3	0	5.388522171119985E+002	4.5960024E-001