EC-Lab ASCII FILE
Nb header lines : 47                          

Open Circuit Voltage

Run on channel : 15 (SN 19485)
User : 
Electrode connection : standard
Potential control : Ewe
Ewe ctrl range : min = -1.00 V, max = 1.00 V
Ewe,I filtering : 50 kHz
Safety Limits :
	Do not start on E overload
Channel : Floating
Acquisition started on : 02/23/2024 15:19:09.853
Loaded Setting File :  NONE
Saved on :
	File : 240223-OCV-EIS-Fe2Fe3_5mM-HCl1M-625RPM-Ag_AgCl_BLF8-GC-RDE-1minRestVSEoc-3ppf-14p1mVAmplitude_03_OCV_C15.mpr
	Directory : C:\Data\mathias\RDE-RPM-variation\
	Host : 192.168.0.1
Device : VMP-300 (SN 0826)
Address : USB
EC-Lab for windows v11.52 (software)
Internet server v11.52 (firmware)
Command interpretor v11.52 (firmware)
Electrode material : 
Initial state : 
Electrolyte : 
Comments : 
Cable : special
Reference electrode : SCE Saturated Calomel Electrode (0.241 V)
Electrode surface area : 0.001 cm²
Characteristic mass : 0.001 g
Equivalent Weight : 0.000 g/eq.
Density : 0.000 g/cm3
Volume (V) : 0.001 cm³
Record EIS quality indicators
Cycle Definition : Charge/Discharge alternance
tR (h:m:s)          0:01:0.0000         
dER/dt (mV/h)       1.0                 
record              <Ewe>               
dER (mV)            0.00                
dtR (s)             0.5000              
E range min (V)     -1.000              
E range max (V)     1.000               

mode	error	time/s	<Ewe/V>	
3	0	4.795180186345533E+002	4.6076566E-001
3	0	4.800180186219222E+002	4.6008915E-001
3	0	4.805180186092912E+002	4.5992196E-001
3	0	4.810180185966601E+002	4.5986295E-001
3	0	4.815180185840291E+002	4.5983294E-001
3	0	4.820180185713980E+002	4.5981744E-001
3	0	4.825180185587669E+002	4.5980409E-001
3	0	4.830180185461359E+002	4.5979786E-001
3	0	4.835180185335048E+002	4.5979279E-001
3	0	4.840180185208737E+002	4.5978987E-001
3	0	4.845180185082427E+002	4.5978644E-001
3	0	4.850180184956116E+002	4.5978400E-001
3	0	4.855180184829806E+002	4.5978040E-001
3	0	4.860180184703495E+002	4.5977840E-001
3	0	4.865180184577184E+002	4.5977962E-001
3	0	4.870180184450874E+002	4.5978215E-001
3	0	4.875180184324563E+002	4.5977908E-001
3	0	4.880180184198252E+002	4.5977864E-001
3	0	4.885180184071942E+002	4.5977780E-001
3	0	4.890180183945631E+002	4.5977268E-001
3	0	4.895180183819321E+002	4.5977503E-001
3	0	4.900180183693010E+002	4.5977452E-001
3	0	4.905180183566699E+002	4.5976922E-001
3	0	4.910180183440389E+002	4.5977181E-001
3	0	4.915180183314078E+002	4.5977443E-001
3	0	4.920180183187767E+002	4.5977342E-001
3	0	4.925180183061457E+002	4.5977181E-001
3	0	4.930180182935146E+002	4.5977166E-001
3	0	4.935180182808836E+002	4.5977077E-001
3	0	4.940180182682525E+002	4.5976856E-001
3	0	4.945180182556214E+002	4.5977291E-001
3	0	4.950180182429904E+002	4.5977235E-001
3	0	4.955180182303593E+002	4.5977181E-001
3	0	4.960180182177282E+002	4.5977375E-001
3	0	4.965180182050972E+002	4.5977384E-001
3	0	4.970180181924661E+002	4.5977396E-001
3	0	4.975180181798351E+002	4.5977283E-001
3	0	4.980180181672040E+002	4.5977315E-001
3	0	4.985180181545729E+002	4.5977598E-001
3	0	4.990180181419419E+002	4.5977566E-001
3	0	4.995180181293108E+002	4.5977023E-001
3	0	5.000180181166797E+002	4.5977029E-001
3	0	5.005180181040487E+002	4.5977113E-001
3	0	5.010180180914176E+002	4.5977932E-001
3	0	5.015180180787866E+002	4.5978469E-001
3	0	5.020180180661555E+002	4.5978522E-001
3	0	5.025180180535244E+002	4.5978484E-001
3	0	5.030180180408934E+002	4.5978436E-001
3	0	5.035180180282623E+002	4.5978558E-001
3	0	5.040180180156312E+002	4.5977619E-001
3	0	5.045180180030002E+002	4.5977023E-001
3	0	5.050180179903691E+002	4.5976955E-001
3	0	5.055180179777381E+002	4.5977113E-001
3	0	5.060180179651070E+002	4.5977366E-001
3	0	5.065180179524759E+002	4.5977262E-001
3	0	5.070180179398449E+002	4.5977303E-001
3	0	5.075180179272138E+002	4.5977128E-001
3	0	5.080180179145827E+002	4.5976886E-001
3	0	5.085180179019517E+002	4.5977098E-001
3	0	5.090180178893206E+002	4.5977312E-001
3	0	5.095180178766896E+002	4.5977113E-001
3	0	5.100180178640585E+002	4.5976868E-001
3	0	5.105180178514274E+002	4.5976940E-001
3	0	5.110180178387964E+002	4.5977059E-001
3	0	5.115180178261653E+002	4.5977381E-001
3	0	5.120180178135342E+002	4.5977277E-001
3	0	5.125180178009032E+002	4.5977303E-001
3	0	5.130180177882721E+002	4.5976791E-001
3	0	5.135180177756411E+002	4.5976770E-001
3	0	5.140180177630100E+002	4.5976803E-001
3	0	5.145180177503789E+002	4.5976809E-001
3	0	5.150180177377479E+002	4.5976418E-001
3	0	5.155180177251168E+002	4.5976356E-001
3	0	5.160180177124857E+002	4.5976374E-001
3	0	5.165180176998547E+002	4.5976222E-001
3	0	5.170180176872236E+002	4.5976281E-001
3	0	5.175180176745926E+002	4.5976496E-001
3	0	5.180180176619615E+002	4.5976678E-001
3	0	5.185180176493304E+002	4.5976534E-001
3	0	5.190180176366994E+002	4.5976388E-001
3	0	5.195180176240683E+002	4.5976385E-001
3	0	5.200180176114372E+002	4.5976344E-001
3	0	5.205180175988062E+002	4.5976463E-001
3	0	5.210180175861751E+002	4.5976311E-001
3	0	5.215180175735441E+002	4.5976433E-001
3	0	5.220180175609130E+002	4.5976204E-001
3	0	5.225180175482819E+002	4.5976403E-001
3	0	5.230180175356509E+002	4.5976388E-001
3	0	5.235180175230198E+002	4.5976588E-001
3	0	5.240180175103887E+002	4.5976672E-001
3	0	5.245180174977577E+002	4.5976627E-001
3	0	5.250180174851266E+002	4.5976624E-001
3	0	5.255180174724956E+002	4.5976627E-001
3	0	5.260180174598645E+002	4.5976242E-001
3	0	5.265180174472334E+002	4.5976517E-001
3	0	5.270180174346024E+002	4.5976585E-001
3	0	5.275180174219713E+002	4.5976657E-001
3	0	5.280180174093402E+002	4.5976412E-001
3	0	5.285180173967092E+002	4.5976189E-001
3	0	5.290180173840781E+002	4.5976296E-001
3	0	5.295180173714471E+002	4.5976213E-001
3	0	5.300180173588160E+002	4.5976409E-001
3	0	5.305180173461849E+002	4.5976302E-001
3	0	5.310180173335539E+002	4.5976076E-001
3	0	5.315180173209228E+002	4.5975989E-001
3	0	5.320180173082917E+002	4.5975938E-001
3	0	5.325180172956607E+002	4.5975807E-001
3	0	5.330180172830296E+002	4.5975700E-001
3	0	5.335180172703986E+002	4.5975506E-001
3	0	5.340180172577675E+002	4.5975828E-001
3	0	5.345180172451364E+002	4.5975950E-001
3	0	5.350180172325054E+002	4.5975715E-001
3	0	5.355180172198743E+002	4.5975950E-001
3	0	5.360180172072432E+002	4.5975640E-001
3	0	5.365180171946122E+002	4.5975804E-001
3	0	5.370180171819811E+002	4.5975637E-001
3	0	5.375180171693501E+002	4.5975700E-001
3	0	5.380180171567190E+002	4.5975715E-001
3	0	5.385180171440879E+002	4.5975769E-001
3	0	5.390180171314569E+002	4.5975885E-001
3	0	5.391772171274351E+002	4.5975712E-001