EC-Lab ASCII FILE
Nb header lines : 47                          

Open Circuit Voltage

Run on channel : 15 (SN 19485)
User : 
Electrode connection : standard
Potential control : Ewe
Ewe ctrl range : min = -1.00 V, max = 1.00 V
Ewe,I filtering : 50 kHz
Safety Limits :
	Do not start on E overload
Channel : Floating
Acquisition started on : 02/23/2024 15:54:32.363
Loaded Setting File :  NONE
Saved on :
	File : 240223-OCV-EIS-Fe2Fe3_5mM-HCl1M-225RPM-Ag_AgCl_BLF8-GC-RDE-1minRestVSEoc-3ppf-14p1mVAmplitude_01_OCV_C15.mpr
	Directory : C:\Data\mathias\RDE-RPM-variation\
	Host : 192.168.0.1
Device : VMP-300 (SN 0826)
Address : USB
EC-Lab for windows v11.52 (software)
Internet server v11.52 (firmware)
Command interpretor v11.52 (firmware)
Electrode material : 
Initial state : 
Electrolyte : 
Comments : 
Cable : special
Reference electrode : SCE Saturated Calomel Electrode (0.241 V)
Electrode surface area : 0.001 cm²
Characteristic mass : 0.001 g
Equivalent Weight : 0.000 g/eq.
Density : 0.000 g/cm3
Volume (V) : 0.001 cm³
Record EIS quality indicators
Cycle Definition : Charge/Discharge alternance
tR (h:m:s)          0:01:0.0000         
dER/dt (mV/h)       1.0                 
record              <Ewe>               
dER (mV)            0.00                
dtR (s)             0.5000              
E range min (V)     -1.000              
E range max (V)     1.000               

mode	error	time/s	<Ewe/V>	
3	0	4.999999873689376E-001	4.5966688E-001
3	0	9.999999747378752E-001	4.5966530E-001
3	0	1.499999962106813E+000	4.5966291E-001
3	0	1.999999949475750E+000	4.5966688E-001
3	0	2.499999936844688E+000	4.5966682E-001
3	0	2.999999924213625E+000	4.5966887E-001
3	0	3.499999911582563E+000	4.5966634E-001
3	0	3.999999898951501E+000	4.5966741E-001
3	0	4.499999886320438E+000	4.5966813E-001
3	0	4.999999873689376E+000	4.5966673E-001
3	0	5.499999861058313E+000	4.5966491E-001
3	0	5.999999848427251E+000	4.5966691E-001
3	0	6.499999835796189E+000	4.5967072E-001
3	0	6.999999823165126E+000	4.5967337E-001
3	0	7.499999810534064E+000	4.5967272E-001
3	0	7.999999797903001E+000	4.5967394E-001
3	0	8.499999785271939E+000	4.5967364E-001
3	0	8.999999772640876E+000	4.5967156E-001
3	0	9.499999760009814E+000	4.5967302E-001
3	0	9.999999747378752E+000	4.5967424E-001
3	0	1.049999973474769E+001	4.5967308E-001
3	0	1.099999972211663E+001	4.5967409E-001
3	0	1.149999970948556E+001	4.5967332E-001
3	0	1.199999969685450E+001	4.5967180E-001
3	0	1.249999968422344E+001	4.5967066E-001
3	0	1.299999967159238E+001	4.5966926E-001
3	0	1.349999965896131E+001	4.5966804E-001
3	0	1.399999964633025E+001	4.5966798E-001
3	0	1.449999963369919E+001	4.5966649E-001
3	0	1.499999962106813E+001	4.5966500E-001
3	0	1.549999960843707E+001	4.5967001E-001
3	0	1.599999959580600E+001	4.5967028E-001
3	0	1.649999958317494E+001	4.5967171E-001
3	0	1.699999957054388E+001	4.5966974E-001
3	0	1.749999955791282E+001	4.5966613E-001
3	0	1.799999954528175E+001	4.5966485E-001
3	0	1.849999953265069E+001	4.5966360E-001
3	0	1.899999952001963E+001	4.5966566E-001
3	0	1.949999950738857E+001	4.5966545E-001
3	0	1.999999949475750E+001	4.5966321E-001
3	0	2.049999948212644E+001	4.5966247E-001
3	0	2.099999946949538E+001	4.5966178E-001
3	0	2.149999945686432E+001	4.5966026E-001
3	0	2.199999944423325E+001	4.5965931E-001
3	0	2.249999943160219E+001	4.5965999E-001
3	0	2.299999941897113E+001	4.5966354E-001
3	0	2.349999940634007E+001	4.5966354E-001
3	0	2.399999939370900E+001	4.5966771E-001
3	0	2.449999938107794E+001	4.5966527E-001
3	0	2.499999936844688E+001	4.5966527E-001
3	0	2.549999935581582E+001	4.5966575E-001
3	0	2.599999934318475E+001	4.5966607E-001
3	0	2.649999933055369E+001	4.5966735E-001
3	0	2.699999931792263E+001	4.5966560E-001
3	0	2.749999930529157E+001	4.5966703E-001
3	0	2.799999929266050E+001	4.5966852E-001
3	0	2.849999928002944E+001	4.5966941E-001
3	0	2.899999926739838E+001	4.5967117E-001
3	0	2.949999925476732E+001	4.5967057E-001
3	0	2.999999924213625E+001	4.5966813E-001
3	0	3.049999922950519E+001	4.5966661E-001
3	0	3.099999921687413E+001	4.5967185E-001
3	0	3.149999920424307E+001	4.5967078E-001
3	0	3.199999919161201E+001	4.5967376E-001
3	0	3.249999917898094E+001	4.5967102E-001
3	0	3.299999916634988E+001	4.5966691E-001
3	0	3.349999915371882E+001	4.5966527E-001
3	0	3.399999914108776E+001	4.5966497E-001
3	0	3.449999912845669E+001	4.5966461E-001
3	0	3.499999911582563E+001	4.5966560E-001
3	0	3.549999910319457E+001	4.5966497E-001
3	0	3.599999909056351E+001	4.5966107E-001
3	0	3.649999907793244E+001	4.5965934E-001
3	0	3.699999906530138E+001	4.5966062E-001
3	0	3.749999905267032E+001	4.5965916E-001
3	0	3.799999904003926E+001	4.5966083E-001
3	0	3.849999902740819E+001	4.5966193E-001
3	0	3.899999901477713E+001	4.5966107E-001
3	0	3.949999900214607E+001	4.5965666E-001
3	0	3.999999898951501E+001	4.5965809E-001
3	0	4.049999897688394E+001	4.5966077E-001
3	0	4.099999896425288E+001	4.5966154E-001
3	0	4.149999895162182E+001	4.5966214E-001
3	0	4.199999893899076E+001	4.5966271E-001
3	0	4.249999892635969E+001	4.5965865E-001
3	0	4.299999891372863E+001	4.5964533E-001
3	0	4.349999890109757E+001	4.5964929E-001
3	0	4.399999888846651E+001	4.5965648E-001
3	0	4.449999887583544E+001	4.5965773E-001
3	0	4.499999886320438E+001	4.5965803E-001
3	0	4.549999885057332E+001	4.5966017E-001
3	0	4.599999883794226E+001	4.5966277E-001
3	0	4.649999882531120E+001	4.5966482E-001
3	0	4.699999881268013E+001	4.5966634E-001
3	0	4.749999880004907E+001	4.5966482E-001
3	0	4.799999878741801E+001	4.5966452E-001
3	0	4.849999877478695E+001	4.5966193E-001
3	0	4.899999876215588E+001	4.5965987E-001
3	0	4.949999874952482E+001	4.5965987E-001
3	0	4.999999873689376E+001	4.5965925E-001
3	0	5.049999872426270E+001	4.5965934E-001
3	0	5.099999871163163E+001	4.5965877E-001
3	0	5.149999869900057E+001	4.5965788E-001
3	0	5.199999868636951E+001	4.5965582E-001
3	0	5.249999867373845E+001	4.5965436E-001
3	0	5.299999866110738E+001	4.5965648E-001
3	0	5.349999864847632E+001	4.5965910E-001
3	0	5.399999863584526E+001	4.5965838E-001
3	0	5.449999862321420E+001	4.5965824E-001
3	0	5.499999861058313E+001	4.5965925E-001
3	0	5.549999859795207E+001	4.5965880E-001
3	0	5.599999858532101E+001	4.5965704E-001
3	0	5.649999857268995E+001	4.5965680E-001
3	0	5.657639857075992E+001	4.5965976E-001