EC-Lab ASCII FILE
Nb header lines : 47                          

Open Circuit Voltage

Run on channel : 15 (SN 19485)
User : 
Electrode connection : standard
Potential control : Ewe
Ewe ctrl range : min = -1.00 V, max = 1.00 V
Ewe,I filtering : 50 kHz
Safety Limits :
	Do not start on E overload
Channel : Floating
Acquisition started on : 02/23/2024 15:19:09.853
Loaded Setting File :  NONE
Saved on :
	File : 240223-OCV-EIS-Fe2Fe3_5mM-HCl1M-625RPM-Ag_AgCl_BLF8-GC-RDE-1minRestVSEoc-3ppf-14p1mVAmplitude_05_OCV_C15.mpr
	Directory : C:\Data\mathias\RDE-RPM-variation\
	Host : 192.168.0.1
Device : VMP-300 (SN 0826)
Address : USB
EC-Lab for windows v11.52 (software)
Internet server v11.52 (firmware)
Command interpretor v11.52 (firmware)
Electrode material : 
Initial state : 
Electrolyte : 
Comments : 
Cable : special
Reference electrode : SCE Saturated Calomel Electrode (0.241 V)
Electrode surface area : 0.001 cm²
Characteristic mass : 0.001 g
Equivalent Weight : 0.000 g/eq.
Density : 0.000 g/cm3
Volume (V) : 0.001 cm³
Record EIS quality indicators
Cycle Definition : Charge/Discharge alternance
tR (h:m:s)          0:01:0.0000         
dER/dt (mV/h)       1.0                 
record              <Ewe>               
dER (mV)            0.00                
dtR (s)             0.5000              
E range min (V)     -1.000              
E range max (V)     1.000               

mode	error	time/s	<Ewe/V>	
3	0	9.623428372018680E+002	4.5894670E-001
3	0	9.628428371892369E+002	4.5943728E-001
3	0	9.633428371766058E+002	4.5957947E-001
3	0	9.638428371639748E+002	4.5963317E-001
3	0	9.643428371513437E+002	4.5965871E-001
3	0	9.648428371387126E+002	4.5967391E-001
3	0	9.653428371260816E+002	4.5968470E-001
3	0	9.658428371134505E+002	4.5969167E-001
3	0	9.663428371008195E+002	4.5969665E-001
3	0	9.668428370881884E+002	4.5969865E-001
3	0	9.673428370755573E+002	4.5970574E-001
3	0	9.678428370629263E+002	4.5970535E-001
3	0	9.683428370502952E+002	4.5970744E-001
3	0	9.688428370376641E+002	4.5970729E-001
3	0	9.693428370250331E+002	4.5971012E-001
3	0	9.698428370124020E+002	4.5970774E-001
3	0	9.703428369997710E+002	4.5970759E-001
3	0	9.708428369871399E+002	4.5970950E-001
3	0	9.713428369745088E+002	4.5970821E-001
3	0	9.718428369618778E+002	4.5971155E-001
3	0	9.723428369492467E+002	4.5971349E-001
3	0	9.728428369366156E+002	4.5971155E-001
3	0	9.733428369239846E+002	4.5971185E-001
3	0	9.738428369113535E+002	4.5971292E-001
3	0	9.743428368987225E+002	4.5971307E-001
3	0	9.748428368860914E+002	4.5971280E-001
3	0	9.753428368734603E+002	4.5971432E-001
3	0	9.758428368608293E+002	4.5971325E-001
3	0	9.763428368481982E+002	4.5971265E-001
3	0	9.768428368355671E+002	4.5971355E-001
3	0	9.773428368229361E+002	4.5971203E-001
3	0	9.778428368103050E+002	4.5971093E-001
3	0	9.783428367976740E+002	4.5971403E-001
3	0	9.788428367850429E+002	4.5971531E-001
3	0	9.793428367724118E+002	4.5971492E-001
3	0	9.798428367597808E+002	4.5971471E-001
3	0	9.803428367471497E+002	4.5971555E-001
3	0	9.808428367345186E+002	4.5971888E-001
3	0	9.813428367218876E+002	4.5971769E-001
3	0	9.818428367092565E+002	4.5971659E-001
3	0	9.823428366966255E+002	4.5971492E-001
3	0	9.828428366839944E+002	4.5971900E-001
3	0	9.833428366713633E+002	4.5972157E-001
3	0	9.838428366587323E+002	4.5971793E-001
3	0	9.843428366461012E+002	4.5971784E-001
3	0	9.848428366334701E+002	4.5972058E-001
3	0	9.853428366208391E+002	4.5972076E-001
3	0	9.858428366082080E+002	4.5972091E-001
3	0	9.863428365955770E+002	4.5972273E-001
3	0	9.868428365829459E+002	4.5972580E-001
3	0	9.873428365703148E+002	4.5972481E-001
3	0	9.878428365576838E+002	4.5972371E-001
3	0	9.883428365450527E+002	4.5972288E-001
3	0	9.888428365324216E+002	4.5972088E-001
3	0	9.893428365197906E+002	4.5972320E-001
3	0	9.898428365071595E+002	4.5972189E-001
3	0	9.903428364945285E+002	4.5971867E-001
3	0	9.908428364818974E+002	4.5972234E-001
3	0	9.913428364692663E+002	4.5972097E-001
3	0	9.918428364566353E+002	4.5972121E-001
3	0	9.923428364440042E+002	4.5972103E-001
3	0	9.928428364313731E+002	4.5972186E-001
3	0	9.933428364187421E+002	4.5972294E-001
3	0	9.938428364061110E+002	4.5972443E-001
3	0	9.943428363934800E+002	4.5972258E-001
3	0	9.948428363808489E+002	4.5972213E-001
3	0	9.953428363682178E+002	4.5972332E-001
3	0	9.958428363555868E+002	4.5972416E-001
3	0	9.963428363429557E+002	4.5972839E-001
3	0	9.968428363303246E+002	4.5972645E-001
3	0	9.973428363176936E+002	4.5972678E-001
3	0	9.978428363050625E+002	4.5972893E-001
3	0	9.983428362924315E+002	4.5972747E-001
3	0	9.988428362798004E+002	4.5972875E-001
3	0	9.993428362671693E+002	4.5973253E-001
3	0	9.998428362545383E+002	4.5973513E-001
3	0	1.000342836241907E+003	4.5973361E-001
3	0	1.000842836229276E+003	4.5973387E-001
3	0	1.001342836216645E+003	4.5973274E-001
3	0	1.001842836204014E+003	4.5973212E-001
3	0	1.002342836191383E+003	4.5972946E-001
3	0	1.002842836178752E+003	4.5972982E-001
3	0	1.003342836166121E+003	4.5972878E-001
3	0	1.003842836153490E+003	4.5972931E-001
3	0	1.004342836140859E+003	4.5972779E-001
3	0	1.004842836128228E+003	4.5972443E-001
3	0	1.005342836115597E+003	4.5972410E-001
3	0	1.005842836102966E+003	4.5972726E-001
3	0	1.006342836090334E+003	4.5972860E-001
3	0	1.006842836077703E+003	4.5973006E-001
3	0	1.007342836065072E+003	4.5973030E-001
3	0	1.007842836052441E+003	4.5973074E-001
3	0	1.008342836039810E+003	4.5973182E-001
3	0	1.008842836027179E+003	4.5973328E-001
3	0	1.009342836014548E+003	4.5973510E-001
3	0	1.009842836001917E+003	4.5973459E-001
3	0	1.010342835989286E+003	4.5973036E-001
3	0	1.010842835976655E+003	4.5972946E-001
3	0	1.011342835964024E+003	4.5972970E-001
3	0	1.011842835951393E+003	4.5972618E-001
3	0	1.012342835938762E+003	4.5972648E-001
3	0	1.012842835926131E+003	4.5972922E-001
3	0	1.013342835913500E+003	4.5973304E-001
3	0	1.013842835900869E+003	4.5973480E-001
3	0	1.014342835888237E+003	4.5973182E-001
3	0	1.014842835875606E+003	4.5973396E-001
3	0	1.015342835862975E+003	4.5973334E-001
3	0	1.015842835850344E+003	4.5973459E-001
3	0	1.016342835837713E+003	4.5973429E-001
3	0	1.016842835825082E+003	4.5973641E-001
3	0	1.017342835812451E+003	4.5973665E-001
3	0	1.017842835799820E+003	4.5973712E-001
3	0	1.018342835787189E+003	4.5973510E-001
3	0	1.018842835774558E+003	4.5973063E-001
3	0	1.019342835761927E+003	4.5972711E-001
3	0	1.019842835749296E+003	4.5972756E-001
3	0	1.020342835736665E+003	4.5972672E-001
3	0	1.020842835724034E+003	4.5973036E-001
3	0	1.021342835711403E+003	4.5973265E-001
3	0	1.021842835698772E+003	4.5973411E-001
3	0	1.022002035694750E+003	4.5973632E-001