EC-Lab ASCII FILE
Nb header lines : 47                          

Open Circuit Voltage

Run on channel : 15 (SN 19485)
User : 
Electrode connection : standard
Potential control : Ewe
Ewe ctrl range : min = -1.00 V, max = 1.00 V
Ewe,I filtering : 50 kHz
Safety Limits :
	Do not start on E overload
Channel : Floating
Acquisition started on : 02/23/2024 15:54:32.363
Loaded Setting File :  NONE
Saved on :
	File : 240223-OCV-EIS-Fe2Fe3_5mM-HCl1M-225RPM-Ag_AgCl_BLF8-GC-RDE-1minRestVSEoc-3ppf-14p1mVAmplitude_05_OCV_C15.mpr
	Directory : C:\Data\mathias\RDE-RPM-variation\
	Host : 192.168.0.1
Device : VMP-300 (SN 0826)
Address : USB
EC-Lab for windows v11.52 (software)
Internet server v11.52 (firmware)
Command interpretor v11.52 (firmware)
Electrode material : 
Initial state : 
Electrolyte : 
Comments : 
Cable : special
Reference electrode : SCE Saturated Calomel Electrode (0.241 V)
Electrode surface area : 0.001 cm²
Characteristic mass : 0.001 g
Equivalent Weight : 0.000 g/eq.
Density : 0.000 g/cm3
Volume (V) : 0.001 cm³
Record EIS quality indicators
Cycle Definition : Charge/Discharge alternance
tR (h:m:s)          0:01:0.0000         
dER/dt (mV/h)       1.0                 
record              <Ewe>               
dER (mV)            0.00                
dtR (s)             0.5000              
E range min (V)     -1.000              
E range max (V)     1.000               

mode	error	time/s	<Ewe/V>	
3	0	9.614718371604977E+002	4.5824221E-001
3	0	9.619718371478666E+002	4.5920232E-001
3	0	9.624718371352355E+002	4.5942289E-001
3	0	9.629718371226045E+002	4.5950553E-001
3	0	9.634718371099734E+002	4.5954269E-001
3	0	9.639718370973424E+002	4.5956385E-001
3	0	9.644718370847113E+002	4.5957556E-001
3	0	9.649718370720802E+002	4.5958009E-001
3	0	9.654718370594492E+002	4.5958370E-001
3	0	9.659718370468181E+002	4.5958981E-001
3	0	9.664718370341870E+002	4.5958644E-001
3	0	9.669718370215560E+002	4.5958376E-001
3	0	9.674718370089249E+002	4.5958626E-001
3	0	9.679718369962939E+002	4.5958450E-001
3	0	9.684718369836628E+002	4.5958382E-001
3	0	9.689718369710317E+002	4.5958191E-001
3	0	9.694718369584007E+002	4.5958087E-001
3	0	9.699718369457696E+002	4.5958030E-001
3	0	9.704718369331385E+002	4.5957869E-001
3	0	9.709718369205075E+002	4.5958123E-001
3	0	9.714718369078764E+002	4.5958304E-001
3	0	9.719718368952454E+002	4.5958060E-001
3	0	9.724718368826143E+002	4.5958129E-001
3	0	9.729718368699832E+002	4.5958298E-001
3	0	9.734718368573522E+002	4.5957938E-001
3	0	9.739718368447211E+002	4.5957747E-001
3	0	9.744718368320900E+002	4.5957819E-001
3	0	9.749718368194590E+002	4.5957771E-001
3	0	9.754718368068279E+002	4.5957440E-001
3	0	9.759718367941969E+002	4.5957640E-001
3	0	9.764718367815658E+002	4.5957604E-001
3	0	9.769718367689347E+002	4.5957682E-001
3	0	9.774718367563037E+002	4.5957375E-001
3	0	9.779718367436726E+002	4.5957473E-001
3	0	9.784718367310415E+002	4.5957506E-001
3	0	9.789718367184105E+002	4.5957386E-001
3	0	9.794718367057794E+002	4.5957595E-001
3	0	9.799718366931484E+002	4.5957845E-001
3	0	9.804718366805173E+002	4.5958021E-001
3	0	9.809718366678862E+002	4.5958292E-001
3	0	9.814718366552552E+002	4.5958194E-001
3	0	9.819718366426241E+002	4.5957965E-001
3	0	9.824718366299930E+002	4.5957765E-001
3	0	9.829718366173620E+002	4.5957902E-001
3	0	9.834718366047309E+002	4.5957756E-001
3	0	9.839718365920999E+002	4.5957023E-001
3	0	9.844718365794688E+002	4.5956808E-001
3	0	9.849718365668377E+002	4.5956764E-001
3	0	9.854718365542067E+002	4.5957100E-001
3	0	9.859718365415756E+002	4.5957062E-001
3	0	9.864718365289446E+002	4.5957389E-001
3	0	9.869718365163135E+002	4.5957494E-001
3	0	9.874718365036824E+002	4.5957419E-001
3	0	9.879718364910514E+002	4.5957381E-001
3	0	9.884718364784203E+002	4.5957097E-001
3	0	9.889718364657892E+002	4.5957062E-001
3	0	9.894718364531582E+002	4.5957035E-001
3	0	9.899718364405271E+002	4.5956877E-001
3	0	9.904718364278961E+002	4.5957112E-001
3	0	9.909718364152650E+002	4.5957318E-001
3	0	9.914718364026339E+002	4.5956776E-001
3	0	9.919718363900029E+002	4.5956281E-001
3	0	9.924718363773718E+002	4.5956051E-001
3	0	9.929718363647407E+002	4.5955983E-001
3	0	9.934718363521097E+002	4.5955881E-001
3	0	9.939718363394786E+002	4.5956278E-001
3	0	9.944718363268476E+002	4.5955983E-001
3	0	9.949718363142165E+002	4.5955792E-001
3	0	9.954718363015854E+002	4.5955876E-001
3	0	9.959718362889544E+002	4.5955887E-001
3	0	9.964718362763233E+002	4.5955899E-001
3	0	9.969718362636922E+002	4.5955631E-001
3	0	9.974718362510612E+002	4.5955715E-001
3	0	9.979718362384301E+002	4.5955500E-001
3	0	9.984718362257991E+002	4.5955622E-001
3	0	9.989718362131680E+002	4.5955563E-001
3	0	9.994718362005369E+002	4.5955265E-001
3	0	9.999718361879059E+002	4.5955124E-001
3	0	1.000471836175275E+003	4.5955485E-001
3	0	1.000971836162644E+003	4.5955431E-001
3	0	1.001471836150013E+003	4.5955148E-001
3	0	1.001971836137382E+003	4.5955306E-001
3	0	1.002471836124751E+003	4.5955276E-001
3	0	1.002971836112119E+003	4.5955414E-001
3	0	1.003471836099488E+003	4.5955387E-001
3	0	1.003971836086857E+003	4.5955643E-001
3	0	1.004471836074226E+003	4.5955199E-001
3	0	1.004971836061595E+003	4.5955485E-001
3	0	1.005471836048964E+003	4.5955548E-001
3	0	1.005971836036333E+003	4.5955548E-001
3	0	1.006471836023702E+003	4.5955715E-001
3	0	1.006971836011071E+003	4.5955575E-001
3	0	1.007471835998440E+003	4.5955721E-001
3	0	1.007971835985809E+003	4.5955744E-001
3	0	1.008471835973178E+003	4.5955506E-001
3	0	1.008971835960547E+003	4.5955682E-001
3	0	1.009471835947916E+003	4.5955813E-001
3	0	1.009971835935285E+003	4.5955929E-001
3	0	1.010471835922654E+003	4.5955768E-001
3	0	1.010971835910022E+003	4.5955607E-001
3	0	1.011471835897391E+003	4.5955914E-001
3	0	1.011971835884760E+003	4.5955735E-001
3	0	1.012471835872129E+003	4.5955858E-001
3	0	1.012971835859498E+003	4.5955631E-001
3	0	1.013471835846867E+003	4.5954978E-001
3	0	1.013971835834236E+003	4.5955032E-001
3	0	1.014471835821605E+003	4.5955032E-001
3	0	1.014971835808974E+003	4.5955077E-001
3	0	1.015471835796343E+003	4.5955256E-001
3	0	1.015971835783712E+003	4.5955324E-001
3	0	1.016471835771081E+003	4.5955184E-001
3	0	1.016971835758450E+003	4.5955539E-001
3	0	1.017471835745819E+003	4.5955548E-001
3	0	1.017971835733188E+003	4.5955417E-001
3	0	1.018471835720557E+003	4.5955834E-001
3	0	1.018971835707925E+003	4.5955706E-001
3	0	1.019471835695294E+003	4.5955858E-001
3	0	1.019971835682663E+003	4.5955965E-001
3	0	1.020471835670032E+003	4.5955959E-001
3	0	1.020971835657401E+003	4.5956004E-001
3	0	1.021131035653380E+003	4.5955929E-001