EC-Lab ASCII FILE
Nb header lines : 47                          

Open Circuit Voltage

Run on channel : 15 (SN 19485)
User : 
Electrode connection : standard
Potential control : Ewe
Ewe ctrl range : min = -1.00 V, max = 1.00 V
Ewe,I filtering : 50 kHz
Safety Limits :
	Do not start on E overload
Channel : Floating
Acquisition started on : 02/23/2024 14:49:54.683
Loaded Setting File :  NONE
Saved on :
	File : 240223-OCV-EIS-Fe2Fe3_5mM-HCl1M-1225RPM-Ag_AgCl_BLF8-GC-RDE-1minRestVSEoc-3ppf-14p1mVAmplitude_07_OCV_C15.mpr
	Directory : C:\Data\mathias\RDE-RPM-variation\
	Host : 192.168.0.1
Device : VMP-300 (SN 0826)
Address : USB
EC-Lab for windows v11.52 (software)
Internet server v11.52 (firmware)
Command interpretor v11.52 (firmware)
Electrode material : 
Initial state : 
Electrolyte : 
Comments : 
Cable : special
Reference electrode : SCE Saturated Calomel Electrode (0.241 V)
Electrode surface area : 0.001 cm²
Characteristic mass : 0.001 g
Equivalent Weight : 0.000 g/eq.
Density : 0.000 g/cm3
Volume (V) : 0.001 cm³
Record EIS quality indicators
Cycle Definition : Charge/Discharge alternance
tR (h:m:s)          0:01:0.0000         
dER/dt (mV/h)       1.0                 
record              <Ewe>               
dER (mV)            0.00                
dtR (s)             0.5000              
E range min (V)     -1.000              
E range max (V)     1.000               

mode	error	time/s	<Ewe/V>	
3	0	1.441755455856182E+003	4.5932838E-001
3	0	1.442255455843551E+003	4.5958132E-001
3	0	1.442755455830920E+003	4.5966661E-001
3	0	1.443255455818289E+003	4.5970228E-001
3	0	1.443755455805658E+003	4.5972496E-001
3	0	1.444255455793027E+003	4.5974034E-001
3	0	1.444755455780396E+003	4.5974621E-001
3	0	1.445255455767765E+003	4.5975399E-001
3	0	1.445755455755134E+003	4.5976135E-001
3	0	1.446255455742503E+003	4.5976457E-001
3	0	1.446755455729872E+003	4.5976779E-001
3	0	1.447255455717241E+003	4.5977250E-001
3	0	1.447755455704610E+003	4.5977145E-001
3	0	1.448255455691979E+003	4.5977369E-001
3	0	1.448755455679348E+003	4.5977521E-001
3	0	1.449255455666716E+003	4.5977458E-001
3	0	1.449755455654085E+003	4.5977521E-001
3	0	1.450255455641454E+003	4.5977762E-001
3	0	1.450755455628823E+003	4.5977587E-001
3	0	1.451255455616192E+003	4.5977527E-001
3	0	1.451755455603561E+003	4.5977613E-001
3	0	1.452255455590930E+003	4.5977849E-001
3	0	1.452755455578299E+003	4.5977712E-001
3	0	1.453255455565668E+003	4.5977473E-001
3	0	1.453755455553037E+003	4.5977855E-001
3	0	1.454255455540406E+003	4.5977873E-001
3	0	1.454755455527775E+003	4.5977941E-001
3	0	1.455255455515144E+003	4.5977750E-001
3	0	1.455755455502513E+003	4.5977870E-001
3	0	1.456255455489882E+003	4.5978016E-001
3	0	1.456755455477251E+003	4.5977855E-001
3	0	1.457255455464619E+003	4.5978054E-001
3	0	1.457755455451988E+003	4.5978045E-001
3	0	1.458255455439357E+003	4.5978045E-001
3	0	1.458755455426726E+003	4.5977965E-001
3	0	1.459255455414095E+003	4.5978180E-001
3	0	1.459755455401464E+003	4.5978391E-001
3	0	1.460255455388833E+003	4.5978400E-001
3	0	1.460755455376202E+003	4.5978239E-001
3	0	1.461255455363571E+003	4.5978087E-001
3	0	1.461755455350940E+003	4.5977947E-001
3	0	1.462255455338309E+003	4.5978087E-001
3	0	1.462755455325678E+003	4.5978034E-001
3	0	1.463255455313047E+003	4.5977938E-001
3	0	1.463755455300416E+003	4.5977765E-001
3	0	1.464255455287785E+003	4.5978239E-001
3	0	1.464755455275154E+003	4.5978361E-001
3	0	1.465255455262522E+003	4.5978385E-001
3	0	1.465755455249891E+003	4.5978284E-001
3	0	1.466255455237260E+003	4.5978200E-001
3	0	1.466755455224629E+003	4.5977911E-001
3	0	1.467255455211998E+003	4.5977941E-001
3	0	1.467755455199367E+003	4.5978323E-001
3	0	1.468255455186736E+003	4.5978302E-001
3	0	1.468755455174105E+003	4.5978293E-001
3	0	1.469255455161474E+003	4.5978415E-001
3	0	1.469755455148843E+003	4.5978576E-001
3	0	1.470255455136212E+003	4.5978463E-001
3	0	1.470755455123581E+003	4.5978084E-001
3	0	1.471255455110950E+003	4.5978168E-001
3	0	1.471755455098319E+003	4.5978084E-001
3	0	1.472255455085688E+003	4.5978186E-001
3	0	1.472755455073057E+003	4.5978019E-001
3	0	1.473255455060425E+003	4.5978153E-001
3	0	1.473755455047794E+003	4.5978370E-001
3	0	1.474255455035163E+003	4.5978859E-001
3	0	1.474755455022532E+003	4.5978883E-001
3	0	1.475255455009901E+003	4.5978728E-001
3	0	1.475755454997270E+003	4.5978582E-001
3	0	1.476255454984639E+003	4.5978683E-001
3	0	1.476755454972008E+003	4.5978668E-001
3	0	1.477255454959377E+003	4.5978844E-001
3	0	1.477755454946746E+003	4.5978615E-001
3	0	1.478255454934115E+003	4.5978692E-001
3	0	1.478755454921484E+003	4.5978546E-001
3	0	1.479255454908853E+003	4.5978531E-001
3	0	1.479755454896222E+003	4.5978117E-001
3	0	1.480255454883591E+003	4.5978302E-001
3	0	1.480755454870960E+003	4.5978346E-001
3	0	1.481255454858328E+003	4.5978531E-001
3	0	1.481755454845697E+003	4.5978767E-001
3	0	1.482255454833066E+003	4.5978963E-001
3	0	1.482755454820435E+003	4.5979059E-001
3	0	1.483255454807804E+003	4.5978707E-001
3	0	1.483755454795173E+003	4.5978752E-001
3	0	1.484255454782542E+003	4.5978537E-001
3	0	1.484755454769911E+003	4.5978400E-001
3	0	1.485255454757280E+003	4.5978537E-001
3	0	1.485755454744649E+003	4.5978659E-001
3	0	1.486255454732018E+003	4.5978567E-001
3	0	1.486755454719387E+003	4.5978463E-001
3	0	1.487255454706756E+003	4.5978585E-001
3	0	1.487755454694125E+003	4.5978585E-001
3	0	1.488255454681494E+003	4.5978621E-001
3	0	1.488755454668863E+003	4.5978612E-001
3	0	1.489255454656231E+003	4.5978668E-001
3	0	1.489755454643600E+003	4.5978612E-001
3	0	1.490255454630969E+003	4.5978704E-001
3	0	1.490755454618338E+003	4.5978841E-001
3	0	1.491255454605707E+003	4.5978680E-001
3	0	1.491755454593076E+003	4.5978674E-001
3	0	1.492255454580445E+003	4.5978484E-001
3	0	1.492755454567814E+003	4.5978713E-001
3	0	1.493255454555183E+003	4.5978582E-001
3	0	1.493755454542552E+003	4.5978707E-001
3	0	1.494255454529921E+003	4.5978612E-001
3	0	1.494755454517290E+003	4.5978317E-001
3	0	1.495255454504659E+003	4.5978084E-001
3	0	1.495755454492028E+003	4.5978123E-001
3	0	1.496255454479397E+003	4.5978224E-001
3	0	1.496755454466766E+003	4.5978233E-001
3	0	1.497255454454134E+003	4.5978397E-001
3	0	1.497755454441503E+003	4.5978352E-001
3	0	1.498255454428872E+003	4.5978659E-001
3	0	1.498755454416241E+003	4.5978791E-001
3	0	1.499255454403610E+003	4.5979783E-001
3	0	1.499755454390979E+003	4.5979762E-001
3	0	1.500255454378348E+003	4.5979786E-001
3	0	1.500755454365717E+003	4.5979246E-001
3	0	1.501255454353086E+003	4.5978490E-001
3	0	1.501414454349069E+003	4.5978403E-001