EC-Lab ASCII FILE
Nb header lines : 47                          

Open Circuit Voltage

Run on channel : 15 (SN 19485)
User : 
Electrode connection : standard
Potential control : Ewe
Ewe ctrl range : min = -1.00 V, max = 1.00 V
Ewe,I filtering : 50 kHz
Safety Limits :
	Do not start on E overload
Channel : Floating
Acquisition started on : 02/23/2024 15:19:09.853
Loaded Setting File :  NONE
Saved on :
	File : 240223-OCV-EIS-Fe2Fe3_5mM-HCl1M-625RPM-Ag_AgCl_BLF8-GC-RDE-1minRestVSEoc-3ppf-14p1mVAmplitude_07_OCV_C15.mpr
	Directory : C:\Data\mathias\RDE-RPM-variation\
	Host : 192.168.0.1
Device : VMP-300 (SN 0826)
Address : USB
EC-Lab for windows v11.52 (software)
Internet server v11.52 (firmware)
Command interpretor v11.52 (firmware)
Electrode material : 
Initial state : 
Electrolyte : 
Comments : 
Cable : special
Reference electrode : SCE Saturated Calomel Electrode (0.241 V)
Electrode surface area : 0.001 cm²
Characteristic mass : 0.001 g
Equivalent Weight : 0.000 g/eq.
Density : 0.000 g/cm3
Volume (V) : 0.001 cm³
Record EIS quality indicators
Cycle Definition : Charge/Discharge alternance
tR (h:m:s)          0:01:0.0000         
dER/dt (mV/h)       1.0                 
record              <Ewe>               
dER (mV)            0.00                
dtR (s)             0.5000              
E range min (V)     -1.000              
E range max (V)     1.000               

mode	error	time/s	<Ewe/V>	
3	0	1.444628055743524E+003	4.5821968E-001
3	0	1.445128055730893E+003	4.5934963E-001
3	0	1.445628055718262E+003	4.5959055E-001
3	0	1.446128055705631E+003	4.5967135E-001
3	0	1.446628055693000E+003	4.5970437E-001
3	0	1.447128055680369E+003	4.5971936E-001
3	0	1.447628055667738E+003	4.5972523E-001
3	0	1.448128055655106E+003	4.5973375E-001
3	0	1.448628055642475E+003	4.5973575E-001
3	0	1.449128055629844E+003	4.5973381E-001
3	0	1.449628055617213E+003	4.5973489E-001
3	0	1.450128055604582E+003	4.5973724E-001
3	0	1.450628055591951E+003	4.5973694E-001
3	0	1.451128055579320E+003	4.5973429E-001
3	0	1.451628055566689E+003	4.5973399E-001
3	0	1.452128055554058E+003	4.5973191E-001
3	0	1.452628055541427E+003	4.5973182E-001
3	0	1.453128055528796E+003	4.5973337E-001
3	0	1.453628055516165E+003	4.5973021E-001
3	0	1.454128055503534E+003	4.5973060E-001
3	0	1.454628055490903E+003	4.5973068E-001
3	0	1.455128055478272E+003	4.5972762E-001
3	0	1.455628055465641E+003	4.5972887E-001
3	0	1.456128055453009E+003	4.5972815E-001
3	0	1.456628055440378E+003	4.5972806E-001
3	0	1.457128055427747E+003	4.5972809E-001
3	0	1.457628055415116E+003	4.5972982E-001
3	0	1.458128055402485E+003	4.5973060E-001
3	0	1.458628055389854E+003	4.5972791E-001
3	0	1.459128055377223E+003	4.5972726E-001
3	0	1.459628055364592E+003	4.5972899E-001
3	0	1.460128055351961E+003	4.5972663E-001
3	0	1.460628055339330E+003	4.5972350E-001
3	0	1.461128055326699E+003	4.5972469E-001
3	0	1.461628055314068E+003	4.5972478E-001
3	0	1.462128055301437E+003	4.5972747E-001
3	0	1.462628055288806E+003	4.5972604E-001
3	0	1.463128055276175E+003	4.5972863E-001
3	0	1.463628055263544E+003	4.5973146E-001
3	0	1.464128055250912E+003	4.5972848E-001
3	0	1.464628055238281E+003	4.5972586E-001
3	0	1.465128055225650E+003	4.5972940E-001
3	0	1.465628055213019E+003	4.5972928E-001
3	0	1.466128055200388E+003	4.5972526E-001
3	0	1.466628055187757E+003	4.5972410E-001
3	0	1.467128055175126E+003	4.5972654E-001
3	0	1.467628055162495E+003	4.5972601E-001
3	0	1.468128055149864E+003	4.5972547E-001
3	0	1.468628055137233E+003	4.5972416E-001
3	0	1.469128055124602E+003	4.5972267E-001
3	0	1.469628055111971E+003	4.5971912E-001
3	0	1.470128055099340E+003	4.5971888E-001
3	0	1.470628055086709E+003	4.5972013E-001
3	0	1.471128055074078E+003	4.5971990E-001
3	0	1.471628055061447E+003	4.5971966E-001
3	0	1.472128055048815E+003	4.5971662E-001
3	0	1.472628055036184E+003	4.5971477E-001
3	0	1.473128055023553E+003	4.5971119E-001
3	0	1.473628055010922E+003	4.5971692E-001
3	0	1.474128054998291E+003	4.5972010E-001
3	0	1.474628054985660E+003	4.5971629E-001
3	0	1.475128054973029E+003	4.5971644E-001
3	0	1.475628054960398E+003	4.5970973E-001
3	0	1.476128054947767E+003	4.5971271E-001
3	0	1.476628054935136E+003	4.5971265E-001
3	0	1.477128054922505E+003	4.5971334E-001
3	0	1.477628054909874E+003	4.5971468E-001
3	0	1.478128054897243E+003	4.5971134E-001
3	0	1.478628054884612E+003	4.5970973E-001
3	0	1.479128054871981E+003	4.5970997E-001
3	0	1.479628054859350E+003	4.5970637E-001
3	0	1.480128054846718E+003	4.5970920E-001
3	0	1.480628054834087E+003	4.5970681E-001
3	0	1.481128054821456E+003	4.5970720E-001
3	0	1.481628054808825E+003	4.5970392E-001
3	0	1.482128054796194E+003	4.5970199E-001
3	0	1.482628054783563E+003	4.5970348E-001
3	0	1.483128054770932E+003	4.5970222E-001
3	0	1.483628054758301E+003	4.5970428E-001
3	0	1.484128054745670E+003	4.5970306E-001
3	0	1.484628054733039E+003	4.5970231E-001
3	0	1.485128054720408E+003	4.5970306E-001
3	0	1.485628054707777E+003	4.5970109E-001
3	0	1.486128054695146E+003	4.5970079E-001
3	0	1.486628054682515E+003	4.5970041E-001
3	0	1.487128054669884E+003	4.5970133E-001
3	0	1.487628054657253E+003	4.5970133E-001
3	0	1.488128054644621E+003	4.5970032E-001
3	0	1.488628054631990E+003	4.5970130E-001
3	0	1.489128054619359E+003	4.5969918E-001
3	0	1.489628054606728E+003	4.5969647E-001
3	0	1.490128054594097E+003	4.5969513E-001
3	0	1.490628054581466E+003	4.5969564E-001
3	0	1.491128054568835E+003	4.5969597E-001
3	0	1.491628054556204E+003	4.5969719E-001
3	0	1.492128054543573E+003	4.5969900E-001
3	0	1.492628054530942E+003	4.5970091E-001
3	0	1.493128054518311E+003	4.5970130E-001
3	0	1.493628054505680E+003	4.5970002E-001
3	0	1.494128054493049E+003	4.5969889E-001
3	0	1.494628054480418E+003	4.5970169E-001
3	0	1.495128054467787E+003	4.5970160E-001
3	0	1.495628054455156E+003	4.5969823E-001
3	0	1.496128054442524E+003	4.5969579E-001
3	0	1.496628054429893E+003	4.5969743E-001
3	0	1.497128054417262E+003	4.5969594E-001
3	0	1.497628054404631E+003	4.5969534E-001
3	0	1.498128054392000E+003	4.5969605E-001
3	0	1.498628054379369E+003	4.5969886E-001
3	0	1.499128054366738E+003	4.5970041E-001
3	0	1.499628054354107E+003	4.5969504E-001
3	0	1.500128054341476E+003	4.5969495E-001
3	0	1.500628054328845E+003	4.5969772E-001
3	0	1.501128054316214E+003	4.5969391E-001
3	0	1.501628054303583E+003	4.5969298E-001
3	0	1.502128054290952E+003	4.5969120E-001
3	0	1.502628054278321E+003	4.5969242E-001
3	0	1.503128054265690E+003	4.5969504E-001
3	0	1.503628054253059E+003	4.5969632E-001
3	0	1.504128054240427E+003	4.5969445E-001
3	0	1.504286854236416E+003	4.5969746E-001