EC-Lab ASCII FILE
Nb header lines : 47                          

Open Circuit Voltage

Run on channel : 15 (SN 19485)
User : 
Electrode connection : standard
Potential control : Ewe
Ewe ctrl range : min = -1.00 V, max = 1.00 V
Ewe,I filtering : 50 kHz
Safety Limits :
	Do not start on E overload
Channel : Floating
Acquisition started on : 02/23/2024 16:29:27.631
Loaded Setting File :  NONE
Saved on :
	File : 240223-OCV-EIS-Fe2Fe3_5mM-HCl1M-0RPM-Ag_AgCl_BLF8-GC-RDE-1minRestVSEoc-3ppf-14p1mVAmplitude_03_OCV_C15.mpr
	Directory : C:\Data\mathias\RDE-RPM-variation\
	Host : 192.168.0.1
Device : VMP-300 (SN 0826)
Address : USB
EC-Lab for windows v11.52 (software)
Internet server v11.52 (firmware)
Command interpretor v11.52 (firmware)
Electrode material : 
Initial state : 
Electrolyte : 
Comments : 
Cable : special
Reference electrode : SCE Saturated Calomel Electrode (0.241 V)
Electrode surface area : 0.001 cm²
Characteristic mass : 0.001 g
Equivalent Weight : 0.000 g/eq.
Density : 0.000 g/cm3
Volume (V) : 0.001 cm³
Record EIS quality indicators
Cycle Definition : Charge/Discharge alternance
tR (h:m:s)          0:01:0.0000         
dER/dt (mV/h)       1.0                 
record              <Ewe>               
dER (mV)            0.00                
dtR (s)             0.5000              
E range min (V)     -1.000              
E range max (V)     1.000               

mode	error	time/s	<Ewe/V>	
3	0	4.826184185327293E+002	4.5972970E-001
3	0	4.831184185200982E+002	4.5931497E-001
3	0	4.836184185074671E+002	4.5927462E-001
3	0	4.841184184948361E+002	4.5927683E-001
3	0	4.846184184822050E+002	4.5928624E-001
3	0	4.851184184695740E+002	4.5929724E-001
3	0	4.856184184569429E+002	4.5930588E-001
3	0	4.861184184443118E+002	4.5931652E-001
3	0	4.866184184316808E+002	4.5932233E-001
3	0	4.871184184190497E+002	4.5933092E-001
3	0	4.876184184064186E+002	4.5933908E-001
3	0	4.881184183937876E+002	4.5934910E-001
3	0	4.886184183811565E+002	4.5935348E-001
3	0	4.891184183685255E+002	4.5935968E-001
3	0	4.896184183558944E+002	4.5936492E-001
3	0	4.901184183432633E+002	4.5936975E-001
3	0	4.906184183306323E+002	4.5937335E-001
3	0	4.911184183180012E+002	4.5937756E-001
3	0	4.916184183053701E+002	4.5938605E-001
3	0	4.921184182927391E+002	4.5939118E-001
3	0	4.926184182801080E+002	4.5939171E-001
3	0	4.931184182674770E+002	4.5939699E-001
3	0	4.936184182548459E+002	4.5940042E-001
3	0	4.941184182422148E+002	4.5940539E-001
3	0	4.946184182295838E+002	4.5940775E-001
3	0	4.951184182169527E+002	4.5941073E-001
3	0	4.956184182043216E+002	4.5941412E-001
3	0	4.961184181916906E+002	4.5941654E-001
3	0	4.966184181790595E+002	4.5941794E-001
3	0	4.971184181664285E+002	4.5941800E-001
3	0	4.976184181537974E+002	4.5942166E-001
3	0	4.981184181411663E+002	4.5942086E-001
3	0	4.986184181285353E+002	4.5942113E-001
3	0	4.991184181159042E+002	4.5942718E-001
3	0	4.996184181032731E+002	4.5942840E-001
3	0	5.001184180906421E+002	4.5943484E-001
3	0	5.006184180780110E+002	4.5943680E-001
3	0	5.011184180653800E+002	4.5943949E-001
3	0	5.016184180527489E+002	4.5943952E-001
3	0	5.021184180401178E+002	4.5944211E-001
3	0	5.026184180274868E+002	4.5944500E-001
3	0	5.031184180148557E+002	4.5944488E-001
3	0	5.036184180022246E+002	4.5944709E-001
3	0	5.041184179895936E+002	4.5944715E-001
3	0	5.046184179769625E+002	4.5944586E-001
3	0	5.051184179643315E+002	4.5944631E-001
3	0	5.056184179517004E+002	4.5944914E-001
3	0	5.061184179390693E+002	4.5944664E-001
3	0	5.066184179264383E+002	4.5944622E-001
3	0	5.071184179138072E+002	4.5944747E-001
3	0	5.076184179011761E+002	4.5944989E-001
3	0	5.081184178885451E+002	4.5945290E-001
3	0	5.086184178759140E+002	4.5945603E-001
3	0	5.091184178632830E+002	4.5945925E-001
3	0	5.096184178506519E+002	4.5945901E-001
3	0	5.101184178380208E+002	4.5945838E-001
3	0	5.106184178253898E+002	4.5945886E-001
3	0	5.111184178127587E+002	4.5946121E-001
3	0	5.116184178001276E+002	4.5946190E-001
3	0	5.121184177874966E+002	4.5946580E-001
3	0	5.126184177748655E+002	4.5946819E-001
3	0	5.131184177622345E+002	4.5946962E-001
3	0	5.136184177496034E+002	4.5946974E-001
3	0	5.141184177369723E+002	4.5947081E-001
3	0	5.146184177243413E+002	4.5947325E-001
3	0	5.151184177117102E+002	4.5947537E-001
3	0	5.156184176990791E+002	4.5947891E-001
3	0	5.161184176864481E+002	4.5947933E-001
3	0	5.166184176738170E+002	4.5947990E-001
3	0	5.171184176611860E+002	4.5947906E-001
3	0	5.176184176485549E+002	4.5948002E-001
3	0	5.181184176359238E+002	4.5948112E-001
3	0	5.186184176232928E+002	4.5948461E-001
3	0	5.191184176106617E+002	4.5948377E-001
3	0	5.196184175980306E+002	4.5948473E-001
3	0	5.201184175853996E+002	4.5948732E-001
3	0	5.206184175727685E+002	4.5948771E-001
3	0	5.211184175601375E+002	4.5948839E-001
3	0	5.216184175475064E+002	4.5949152E-001
3	0	5.221184175348753E+002	4.5949352E-001
3	0	5.226184175222443E+002	4.5949402E-001
3	0	5.231184175096132E+002	4.5949465E-001
3	0	5.236184174969821E+002	4.5949671E-001
3	0	5.241184174843511E+002	4.5949954E-001
3	0	5.246184174717200E+002	4.5950001E-001
3	0	5.251184174590890E+002	4.5950106E-001
3	0	5.256184174464579E+002	4.5950094E-001
3	0	5.261184174338268E+002	4.5950520E-001
3	0	5.266184174211958E+002	4.5950329E-001
3	0	5.271184174085647E+002	4.5950565E-001
3	0	5.276184173959336E+002	4.5950472E-001
3	0	5.281184173833026E+002	4.5950419E-001
3	0	5.286184173706715E+002	4.5950389E-001
3	0	5.291184173580405E+002	4.5950481E-001
3	0	5.296184173454094E+002	4.5950457E-001
3	0	5.301184173327783E+002	4.5950681E-001
3	0	5.306184173201473E+002	4.5950636E-001
3	0	5.311184173075162E+002	4.5950779E-001
3	0	5.316184172948851E+002	4.5950758E-001
3	0	5.321184172822541E+002	4.5951033E-001
3	0	5.326184172696230E+002	4.5950985E-001
3	0	5.331184172569920E+002	4.5951146E-001
3	0	5.336184172443609E+002	4.5951566E-001
3	0	5.341184172317298E+002	4.5951858E-001
3	0	5.346184172190988E+002	4.5951837E-001
3	0	5.351184172064677E+002	4.5952210E-001
3	0	5.356184171938366E+002	4.5952111E-001
3	0	5.361184171812056E+002	4.5952049E-001
3	0	5.366184171685745E+002	4.5951834E-001
3	0	5.371184171559435E+002	4.5951781E-001
3	0	5.376184171433124E+002	4.5951745E-001
3	0	5.381184171306813E+002	4.5951921E-001
3	0	5.386184171180503E+002	4.5951942E-001
3	0	5.391184171054192E+002	4.5951805E-001
3	0	5.396184170927882E+002	4.5951852E-001
3	0	5.401184170801571E+002	4.5952213E-001
3	0	5.406184170675260E+002	4.5952335E-001
3	0	5.411184170548950E+002	4.5952296E-001
3	0	5.416184170422639E+002	4.5952439E-001
3	0	5.421184170296328E+002	4.5952472E-001
3	0	5.422776170256111E+002	4.5952538E-001