EC-Lab ASCII FILE
Nb header lines : 47                          

Open Circuit Voltage

Run on channel : 15 (SN 19485)
User : 
Electrode connection : standard
Potential control : Ewe
Ewe ctrl range : min = -1.00 V, max = 1.00 V
Ewe,I filtering : 50 kHz
Safety Limits :
	Do not start on E overload
Channel : Floating
Acquisition started on : 02/23/2024 14:49:54.683
Loaded Setting File :  NONE
Saved on :
	File : 240223-OCV-EIS-Fe2Fe3_5mM-HCl1M-1225RPM-Ag_AgCl_BLF8-GC-RDE-1minRestVSEoc-3ppf-14p1mVAmplitude_05_OCV_C15.mpr
	Directory : C:\Data\mathias\RDE-RPM-variation\
	Host : 192.168.0.1
Device : VMP-300 (SN 0826)
Address : USB
EC-Lab for windows v11.52 (software)
Internet server v11.52 (firmware)
Command interpretor v11.52 (firmware)
Electrode material : 
Initial state : 
Electrolyte : 
Comments : 
Cable : special
Reference electrode : SCE Saturated Calomel Electrode (0.241 V)
Electrode surface area : 0.001 cm²
Characteristic mass : 0.001 g
Equivalent Weight : 0.000 g/eq.
Density : 0.000 g/cm3
Volume (V) : 0.001 cm³
Record EIS quality indicators
Cycle Definition : Charge/Discharge alternance
tR (h:m:s)          0:01:0.0000         
dER/dt (mV/h)       1.0                 
record              <Ewe>               
dER (mV)            0.00                
dtR (s)             0.5000              
E range min (V)     -1.000              
E range max (V)     1.000               

mode	error	time/s	<Ewe/V>	
3	0	9.589284372887778E+002	4.6094128E-001
3	0	9.594284372761467E+002	4.6006614E-001
3	0	9.599284372635157E+002	4.5991769E-001
3	0	9.604284372508846E+002	4.5986897E-001
3	0	9.609284372382535E+002	4.5984665E-001
3	0	9.614284372256225E+002	4.5983893E-001
3	0	9.619284372129914E+002	4.5983493E-001
3	0	9.624284372003603E+002	4.5983225E-001
3	0	9.629284371877293E+002	4.5982853E-001
3	0	9.634284371750982E+002	4.5982215E-001
3	0	9.639284371624672E+002	4.5981985E-001
3	0	9.644284371498361E+002	4.5981866E-001
3	0	9.649284371372050E+002	4.5981652E-001
3	0	9.654284371245740E+002	4.5981565E-001
3	0	9.659284371119429E+002	4.5981589E-001
3	0	9.664284370993119E+002	4.5981345E-001
3	0	9.669284370866808E+002	4.5981136E-001
3	0	9.674284370740497E+002	4.5981321E-001
3	0	9.679284370614187E+002	4.5981398E-001
3	0	9.684284370487876E+002	4.5981741E-001
3	0	9.689284370361565E+002	4.5982015E-001
3	0	9.694284370235255E+002	4.5981878E-001
3	0	9.699284370108944E+002	4.5981434E-001
3	0	9.704284369982634E+002	4.5981154E-001
3	0	9.709284369856323E+002	4.5980924E-001
3	0	9.714284369730012E+002	4.5980960E-001
3	0	9.719284369603702E+002	4.5980939E-001
3	0	9.724284369477391E+002	4.5980838E-001
3	0	9.729284369351080E+002	4.5981082E-001
3	0	9.734284369224770E+002	4.5980939E-001
3	0	9.739284369098459E+002	4.5980626E-001
3	0	9.744284368972149E+002	4.5980510E-001
3	0	9.749284368845838E+002	4.5980486E-001
3	0	9.754284368719527E+002	4.5980838E-001
3	0	9.759284368593217E+002	4.5980746E-001
3	0	9.764284368466906E+002	4.5980617E-001
3	0	9.769284368340595E+002	4.5980719E-001
3	0	9.774284368214285E+002	4.5980749E-001
3	0	9.779284368087974E+002	4.5979938E-001
3	0	9.784284367961664E+002	4.5979905E-001
3	0	9.789284367835353E+002	4.5980006E-001
3	0	9.794284367709042E+002	4.5979977E-001
3	0	9.799284367582732E+002	4.5980072E-001
3	0	9.804284367456421E+002	4.5979935E-001
3	0	9.809284367330110E+002	4.5979723E-001
3	0	9.814284367203800E+002	4.5979637E-001
3	0	9.819284367077489E+002	4.5979705E-001
3	0	9.824284366951179E+002	4.5979545E-001
3	0	9.829284366824868E+002	4.5979562E-001
3	0	9.834284366698557E+002	4.5979378E-001
3	0	9.839284366572247E+002	4.5979363E-001
3	0	9.844284366445936E+002	4.5979637E-001
3	0	9.849284366319625E+002	4.5979631E-001
3	0	9.854284366193315E+002	4.5980012E-001
3	0	9.859284366067004E+002	4.5979503E-001
3	0	9.864284365940694E+002	4.5979613E-001
3	0	9.869284365814383E+002	4.5979476E-001
3	0	9.874284365688072E+002	4.5979455E-001
3	0	9.879284365561762E+002	4.5979449E-001
3	0	9.884284365435451E+002	4.5979530E-001
3	0	9.889284365309140E+002	4.5979080E-001
3	0	9.894284365182830E+002	4.5979148E-001
3	0	9.899284365056519E+002	4.5979685E-001
3	0	9.904284364930209E+002	4.5979613E-001
3	0	9.909284364803898E+002	4.5979503E-001
3	0	9.914284364677587E+002	4.5979449E-001
3	0	9.919284364551277E+002	4.5979118E-001
3	0	9.924284364424966E+002	4.5979261E-001
3	0	9.929284364298655E+002	4.5979041E-001
3	0	9.934284364172345E+002	4.5979866E-001
3	0	9.939284364046034E+002	4.5979801E-001
3	0	9.944284363919724E+002	4.5979822E-001
3	0	9.949284363793413E+002	4.5980030E-001
3	0	9.954284363667102E+002	4.5979950E-001
3	0	9.959284363540792E+002	4.5979938E-001
3	0	9.964284363414481E+002	4.5979929E-001
3	0	9.969284363288170E+002	4.5980003E-001
3	0	9.974284363161860E+002	4.5979699E-001
3	0	9.979284363035549E+002	4.5979640E-001
3	0	9.984284362909239E+002	4.5980188E-001
3	0	9.989284362782928E+002	4.5980349E-001
3	0	9.994284362656617E+002	4.5980027E-001
3	0	9.999284362530307E+002	4.5979762E-001
3	0	1.000428436240400E+003	4.5979777E-001
3	0	1.000928436227769E+003	4.5979324E-001
3	0	1.001428436215137E+003	4.5979384E-001
3	0	1.001928436202506E+003	4.5979491E-001
3	0	1.002428436189875E+003	4.5979562E-001
3	0	1.002928436177244E+003	4.5979509E-001
3	0	1.003428436164613E+003	4.5979455E-001
3	0	1.003928436151982E+003	4.5979625E-001
3	0	1.004428436139351E+003	4.5979768E-001
3	0	1.004928436126720E+003	4.5979974E-001
3	0	1.005428436114089E+003	4.5980334E-001
3	0	1.005928436101458E+003	4.5980549E-001
3	0	1.006428436088827E+003	4.5980909E-001
3	0	1.006928436076196E+003	4.5981076E-001
3	0	1.007428436063565E+003	4.5981055E-001
3	0	1.007928436050934E+003	4.5980671E-001
3	0	1.008428436038303E+003	4.5980638E-001
3	0	1.008928436025672E+003	4.5980656E-001
3	0	1.009428436013040E+003	4.5980504E-001
3	0	1.009928436000409E+003	4.5980516E-001
3	0	1.010428435987778E+003	4.5980036E-001
3	0	1.010928435975147E+003	4.5979962E-001
3	0	1.011428435962516E+003	4.5979920E-001
3	0	1.011928435949885E+003	4.5979881E-001
3	0	1.012428435937254E+003	4.5980135E-001
3	0	1.012928435924623E+003	4.5980173E-001
3	0	1.013428435911992E+003	4.5980135E-001
3	0	1.013928435899361E+003	4.5980188E-001
3	0	1.014428435886730E+003	4.5980281E-001
3	0	1.014928435874099E+003	4.5979989E-001
3	0	1.015428435861468E+003	4.5979440E-001
3	0	1.015928435848837E+003	4.5979714E-001
3	0	1.016428435836206E+003	4.5980188E-001
3	0	1.016928435823575E+003	4.5980403E-001
3	0	1.017428435810943E+003	4.5980105E-001
3	0	1.017928435798312E+003	4.5979509E-001
3	0	1.018428435785681E+003	4.5979470E-001
3	0	1.018587635781660E+003	4.5979458E-001