EC-Lab ASCII FILE
Nb header lines : 47                          

Open Circuit Voltage

Run on channel : 15 (SN 19485)
User : 
Electrode connection : standard
Potential control : Ewe
Ewe ctrl range : min = -1.00 V, max = 1.00 V
Ewe,I filtering : 50 kHz
Safety Limits :
	Do not start on E overload
Channel : Floating
Acquisition started on : 02/23/2024 14:49:54.683
Loaded Setting File :  NONE
Saved on :
	File : 240223-OCV-EIS-Fe2Fe3_5mM-HCl1M-1225RPM-Ag_AgCl_BLF8-GC-RDE-1minRestVSEoc-3ppf-14p1mVAmplitude_03_OCV_C15.mpr
	Directory : C:\Data\mathias\RDE-RPM-variation\
	Host : 192.168.0.1
Device : VMP-300 (SN 0826)
Address : USB
EC-Lab for windows v11.52 (software)
Internet server v11.52 (firmware)
Command interpretor v11.52 (firmware)
Electrode material : 
Initial state : 
Electrolyte : 
Comments : 
Cable : special
Reference electrode : SCE Saturated Calomel Electrode (0.241 V)
Electrode surface area : 0.001 cm²
Characteristic mass : 0.001 g
Equivalent Weight : 0.000 g/eq.
Density : 0.000 g/cm3
Volume (V) : 0.001 cm³
Record EIS quality indicators
Cycle Definition : Charge/Discharge alternance
tR (h:m:s)          0:01:0.0000         
dER/dt (mV/h)       1.0                 
record              <Ewe>               
dER (mV)            0.00                
dtR (s)             0.5000              
E range min (V)     -1.000              
E range max (V)     1.000               

mode	error	time/s	<Ewe/V>	
3	0	4.797472186454252E+002	4.5872438E-001
3	0	4.802472186327941E+002	4.5963690E-001
3	0	4.807472186201630E+002	4.5978346E-001
3	0	4.812472186075320E+002	4.5982659E-001
3	0	4.817472185949009E+002	4.5984259E-001
3	0	4.822472185822699E+002	4.5985514E-001
3	0	4.827472185696388E+002	4.5985505E-001
3	0	4.832472185570077E+002	4.5985305E-001
3	0	4.837472185443767E+002	4.5984939E-001
3	0	4.842472185317456E+002	4.5984831E-001
3	0	4.847472185191145E+002	4.5984778E-001
3	0	4.852472185064835E+002	4.5984608E-001
3	0	4.857472184938524E+002	4.5984676E-001
3	0	4.862472184812214E+002	4.5984229E-001
3	0	4.867472184685903E+002	4.5984066E-001
3	0	4.872472184559592E+002	4.5984030E-001
3	0	4.877472184433282E+002	4.5984372E-001
3	0	4.882472184306971E+002	4.5984143E-001
3	0	4.887472184180660E+002	4.5983920E-001
3	0	4.892472184054350E+002	4.5983562E-001
3	0	4.897472183928039E+002	4.5984015E-001
3	0	4.902472183801729E+002	4.5983616E-001
3	0	4.907472183675418E+002	4.5983571E-001
3	0	4.912472183549107E+002	4.5983958E-001
3	0	4.917472183422797E+002	4.5983884E-001
3	0	4.922472183296486E+002	4.5983747E-001
3	0	4.927472183170175E+002	4.5983502E-001
3	0	4.932472183043865E+002	4.5983699E-001
3	0	4.937472182917554E+002	4.5983464E-001
3	0	4.942472182791244E+002	4.5983353E-001
3	0	4.947472182664933E+002	4.5983157E-001
3	0	4.952472182538622E+002	4.5983094E-001
3	0	4.957472182412312E+002	4.5983300E-001
3	0	4.962472182286001E+002	4.5983082E-001
3	0	4.967472182159690E+002	4.5983592E-001
3	0	4.972472182033380E+002	4.5983776E-001
3	0	4.977472181907069E+002	4.5983639E-001
3	0	4.982472181780759E+002	4.5983553E-001
3	0	4.987472181654448E+002	4.5983469E-001
3	0	4.992472181528137E+002	4.5982948E-001
3	0	4.997472181401827E+002	4.5981881E-001
3	0	5.002472181275516E+002	4.5981824E-001
3	0	5.007472181149205E+002	4.5981848E-001
3	0	5.012472181022895E+002	4.5982361E-001
3	0	5.017472180896584E+002	4.5981854E-001
3	0	5.022472180770274E+002	4.5981857E-001
3	0	5.027472180643963E+002	4.5981771E-001
3	0	5.032472180517652E+002	4.5982140E-001
3	0	5.037472180391342E+002	4.5981637E-001
3	0	5.042472180265031E+002	4.5981199E-001
3	0	5.047472180138720E+002	4.5981678E-001
3	0	5.052472180012410E+002	4.5981634E-001
3	0	5.057472179886099E+002	4.5981643E-001
3	0	5.062472179759789E+002	4.5981321E-001
3	0	5.067472179633478E+002	4.5981175E-001
3	0	5.072472179507167E+002	4.5980948E-001
3	0	5.077472179380857E+002	4.5981246E-001
3	0	5.082472179254546E+002	4.5981461E-001
3	0	5.087472179128235E+002	4.5981055E-001
3	0	5.092472179001925E+002	4.5981190E-001
3	0	5.097472178875614E+002	4.5981327E-001
3	0	5.102472178749304E+002	4.5981100E-001
3	0	5.107472178622993E+002	4.5981291E-001
3	0	5.112472178496682E+002	4.5981506E-001
3	0	5.117472178370372E+002	4.5981565E-001
3	0	5.122472178244061E+002	4.5981169E-001
3	0	5.127472178117750E+002	4.5981160E-001
3	0	5.132472177991440E+002	4.5981550E-001
3	0	5.137472177865129E+002	4.5981306E-001
3	0	5.142472177738819E+002	4.5981833E-001
3	0	5.147472177612508E+002	4.5980975E-001
3	0	5.152472177486197E+002	4.5980895E-001
3	0	5.157472177359887E+002	4.5980841E-001
3	0	5.162472177233576E+002	4.5981267E-001
3	0	5.167472177107265E+002	4.5981365E-001
3	0	5.172472176980955E+002	4.5981267E-001
3	0	5.177472176854644E+002	4.5980826E-001
3	0	5.182472176728334E+002	4.5980901E-001
3	0	5.187472176602023E+002	4.5981321E-001
3	0	5.192472176475712E+002	4.5981029E-001
3	0	5.197472176349402E+002	4.5981023E-001
3	0	5.202472176223091E+002	4.5981213E-001
3	0	5.207472176096780E+002	4.5981199E-001
3	0	5.212472175970470E+002	4.5981276E-001
3	0	5.217472175844159E+002	4.5981550E-001
3	0	5.222472175717849E+002	4.5981634E-001
3	0	5.227472175591538E+002	4.5981032E-001
3	0	5.232472175465227E+002	4.5980895E-001
3	0	5.237472175338917E+002	4.5981166E-001
3	0	5.242472175212606E+002	4.5981336E-001
3	0	5.247472175086295E+002	4.5981619E-001
3	0	5.252472174959985E+002	4.5981428E-001
3	0	5.257472174833674E+002	4.5982376E-001
3	0	5.262472174707364E+002	4.5982245E-001
3	0	5.267472174581053E+002	4.5982409E-001
3	0	5.272472174454742E+002	4.5982614E-001
3	0	5.277472174328432E+002	4.5982581E-001
3	0	5.282472174202121E+002	4.5982146E-001
3	0	5.287472174075810E+002	4.5982191E-001
3	0	5.292472173949500E+002	4.5981559E-001
3	0	5.297472173823189E+002	4.5981604E-001
3	0	5.302472173696879E+002	4.5981717E-001
3	0	5.307472173570568E+002	4.5981848E-001
3	0	5.312472173444257E+002	4.5981312E-001
3	0	5.317472173317947E+002	4.5981383E-001
3	0	5.322472173191636E+002	4.5981881E-001
3	0	5.327472173065325E+002	4.5981491E-001
3	0	5.332472172939015E+002	4.5981529E-001
3	0	5.337472172812704E+002	4.5980945E-001
3	0	5.342472172686394E+002	4.5980802E-001
3	0	5.347472172560083E+002	4.5980847E-001
3	0	5.352472172433772E+002	4.5980823E-001
3	0	5.357472172307462E+002	4.5980787E-001
3	0	5.359828172247944E+002	4.5980659E-001