EC-Lab ASCII FILE
Nb header lines : 47                          

Open Circuit Voltage

Run on channel : 15 (SN 19485)
User : 
Electrode connection : standard
Potential control : Ewe
Ewe ctrl range : min = -1.00 V, max = 1.00 V
Ewe,I filtering : 50 kHz
Safety Limits :
	Do not start on E overload
Channel : Floating
Acquisition started on : 02/23/2024 12:36:41.987
Loaded Setting File :  C:\Data\mathias\RDE-RPM-variation\240222-CV-EIS-Fe2Fe3_5mM-HCl1M-0RPM-Ag_AgCl_BLF8-GC-RDE-DefaultSettings.mps
Saved on :
	File : 240223-OCV-EIS-Fe2Fe3_5mM-HCl1M-2000RPM-Ag_AgCl_BLF8-GC-RDE-AllPreviousVariations_05_OCV_C15.mpr
	Directory : C:\Data\mathias\RDE-RPM-variation\
	Host : 192.168.0.1
Device : VMP-300 (SN 0826)
Address : USB
EC-Lab for windows v11.52 (software)
Internet server v11.52 (firmware)
Command interpretor v11.52 (firmware)
Electrode material : 
Initial state : 
Electrolyte : 
Comments : 
Cable : special
Reference electrode : SCE Saturated Calomel Electrode (0.241 V)
Electrode surface area : 0.001 cm²
Characteristic mass : 0.001 g
Equivalent Weight : 0.000 g/eq.
Density : 0.000 g/cm3
Volume (V) : 0.001 cm³
Record EIS quality indicators
Cycle Definition : Charge/Discharge alternance
tR (h:m:s)          0:01:0.0000         
dER/dt (mV/h)       1.0                 
record              <Ewe>               
dER (mV)            0.00                
dtR (s)             0.5000              
E range min (V)     -1.000              
E range max (V)     1.000               

mode	error	time/s	<Ewe/V>	
3	0	1.540160442811757E+003	4.1539204E-001
3	0	1.540660442799126E+003	4.4700170E-001
3	0	1.541160442786495E+003	4.5281503E-001
3	0	1.541660442773864E+003	4.5503962E-001
3	0	1.542160442761233E+003	4.5623124E-001
3	0	1.542660442748602E+003	4.5697552E-001
3	0	1.543160442735971E+003	4.5747828E-001
3	0	1.543660442723340E+003	4.5783639E-001
3	0	1.544160442710709E+003	4.5809773E-001
3	0	1.544660442698078E+003	4.5830378E-001
3	0	1.545160442685446E+003	4.5846874E-001
3	0	1.545660442672815E+003	4.5860267E-001
3	0	1.546160442660184E+003	4.5871374E-001
3	0	1.546660442647553E+003	4.5880511E-001
3	0	1.547160442634922E+003	4.5888722E-001
3	0	1.547660442622291E+003	4.5895436E-001
3	0	1.548160442609660E+003	4.5901614E-001
3	0	1.548660442597029E+003	4.5906764E-001
3	0	1.549160442584398E+003	4.5911491E-001
3	0	1.549660442571767E+003	4.5915744E-001
3	0	1.550160442559136E+003	4.5919344E-001
3	0	1.550660442546505E+003	4.5922688E-001
3	0	1.551160442533874E+003	4.5925707E-001
3	0	1.551660442521243E+003	4.5928141E-001
3	0	1.552160442508612E+003	4.5930383E-001
3	0	1.552660442495981E+003	4.5932350E-001
3	0	1.553160442483349E+003	4.5933947E-001
3	0	1.553660442470718E+003	4.5935902E-001
3	0	1.554160442458087E+003	4.5937914E-001
3	0	1.554660442445456E+003	4.5939612E-001
3	0	1.555160442432825E+003	4.5941329E-001
3	0	1.555660442420194E+003	4.5942712E-001
3	0	1.556160442407563E+003	4.5943859E-001
3	0	1.556660442394932E+003	4.5945123E-001
3	0	1.557160442382301E+003	4.5946145E-001
3	0	1.557660442369670E+003	4.5947161E-001
3	0	1.558160442357039E+003	4.5948285E-001
3	0	1.558660442344408E+003	4.5949161E-001
3	0	1.559160442331777E+003	4.5950153E-001
3	0	1.559660442319146E+003	4.5950696E-001
3	0	1.560160442306515E+003	4.5951295E-001
3	0	1.560660442293884E+003	4.5952240E-001
3	0	1.561160442281252E+003	4.5953205E-001
3	0	1.561660442268621E+003	4.5954016E-001
3	0	1.562160442255990E+003	4.5954621E-001
3	0	1.562660442243359E+003	4.5955515E-001
3	0	1.563160442230728E+003	4.5956174E-001
3	0	1.563660442218097E+003	4.5956984E-001
3	0	1.564160442205466E+003	4.5957267E-001
3	0	1.564660442192835E+003	4.5958030E-001
3	0	1.565160442180204E+003	4.5958611E-001
3	0	1.565660442167573E+003	4.5958918E-001
3	0	1.566160442154942E+003	4.5959383E-001
3	0	1.566660442142311E+003	4.5959601E-001
3	0	1.567160442129680E+003	4.5960090E-001
3	0	1.567660442117049E+003	4.5960417E-001
3	0	1.568160442104418E+003	4.5960882E-001
3	0	1.568660442091787E+003	4.5961261E-001
3	0	1.569160442079155E+003	4.5961586E-001
3	0	1.569660442066524E+003	4.5961773E-001
3	0	1.570160442053893E+003	4.5962247E-001
3	0	1.570660442041262E+003	4.5962757E-001
3	0	1.571160442028631E+003	4.5962781E-001
3	0	1.571660442016000E+003	4.5963070E-001
3	0	1.572160442003369E+003	4.5963353E-001
3	0	1.572660441990738E+003	4.5963624E-001
3	0	1.573160441978107E+003	4.5963851E-001
3	0	1.573660441965476E+003	4.5963800E-001
3	0	1.574160441952845E+003	4.5964167E-001
3	0	1.574660441940214E+003	4.5964211E-001
3	0	1.575160441927583E+003	4.5964378E-001
3	0	1.575660441914952E+003	4.5964679E-001
3	0	1.576160441902321E+003	4.5965177E-001
3	0	1.576660441889690E+003	4.5965567E-001
3	0	1.577160441877058E+003	4.5965621E-001
3	0	1.577660441864427E+003	4.5965895E-001
3	0	1.578160441851796E+003	4.5966083E-001
3	0	1.578660441839165E+003	4.5966384E-001
3	0	1.579160441826534E+003	4.5966321E-001
3	0	1.579660441813903E+003	4.5966497E-001
3	0	1.580160441801272E+003	4.5966560E-001
3	0	1.580660441788641E+003	4.5966545E-001
3	0	1.581160441776010E+003	4.5966804E-001
3	0	1.581660441763379E+003	4.5967308E-001
3	0	1.582160441750748E+003	4.5967484E-001
3	0	1.582660441738117E+003	4.5967838E-001
3	0	1.583160441725486E+003	4.5967576E-001
3	0	1.583660441712855E+003	4.5967677E-001
3	0	1.584160441700224E+003	4.5967770E-001
3	0	1.584660441687593E+003	4.5968136E-001
3	0	1.585160441674961E+003	4.5968106E-001
3	0	1.585660441662330E+003	4.5968458E-001
3	0	1.586160441649699E+003	4.5968792E-001
3	0	1.586660441637068E+003	4.5968997E-001
3	0	1.587160441624437E+003	4.5969552E-001
3	0	1.587660441611806E+003	4.5969626E-001
3	0	1.588160441599175E+003	4.5969886E-001
3	0	1.588660441586544E+003	4.5970100E-001
3	0	1.589160441573913E+003	4.5970193E-001
3	0	1.589660441561282E+003	4.5970377E-001
3	0	1.590160441548651E+003	4.5970628E-001
3	0	1.590660441536020E+003	4.5970622E-001
3	0	1.591160441523389E+003	4.5971105E-001
3	0	1.591660441510758E+003	4.5971057E-001
3	0	1.592160441498127E+003	4.5971042E-001
3	0	1.592660441485496E+003	4.5971188E-001
3	0	1.593160441472864E+003	4.5971131E-001
3	0	1.593660441460233E+003	4.5971146E-001
3	0	1.594160441447602E+003	4.5971429E-001
3	0	1.594660441434971E+003	4.5971617E-001
3	0	1.595160441422340E+003	4.5971578E-001
3	0	1.595660441409709E+003	4.5971784E-001
3	0	1.596160441397078E+003	4.5971730E-001
3	0	1.596660441384447E+003	4.5971921E-001
3	0	1.597160441371816E+003	4.5972347E-001
3	0	1.597660441359185E+003	4.5972565E-001
3	0	1.598160441346554E+003	4.5972785E-001
3	0	1.598660441333923E+003	4.5973137E-001
3	0	1.599160441321292E+003	4.5973346E-001
3	0	1.599660441308661E+003	4.5973098E-001
3	0	1.599818041304679E+003	4.5973107E-001