EC-Lab ASCII FILE
Nb header lines : 3                           
freq/Hz	Re(Z)/Ohm	-Im(Z)/Ohm	|Z|/Ohm	Phase(Z)/deg	Re(Y)/Ohm-1	Im(Y)/Ohm-1	|Y|/Ohm-1	Phase(Y)/deg	Re(C)/nF	Im(C)/nF	|C|/nF	Phase(C)/deg	Re(M)	Im(M)	|M|	Phase(M)/deg	Re(Permittivity)	Im(Permittivity)	|Permittivity|	Phase(Permittivity)/deg	Re(Resistivity)/Ohm.cm	Im(Resistivity)/Ohm.cm	|Resistivity|/Ohm.cm	Phase(Resistivity)/deg	Re(Conductivity)/mS/cm	Im(Conductivity)/mS/cm	|Conductivity|/mS/cm	Phase(Conductivity)/deg	Tan(Delta)	Loss Angle(Delta)/deg	
1.0000000E+006	1.0003568E+000	3.5682484E-004	1.0003569E+000	-2.0437263E-002	9.9964315E-001	3.5657026E-004	9.9964321E-001	2.0437263E-002	5.6755148E-002	1.5909813E+002	1.5909814E+002	-8.9979561E+001	0.0000000E+000	0.0000000E+000	0.0000000E+000	8.9979561E+001	0.0000000E+000	0.0000000E+000	0.0000000E+000	-8.9979561E+001	0.0000000E+000	0.0000000E+000	0.0000000E+000	-2.0437263E-002	0.0000000E+000	0.0000000E+000	0.0000000E+000	2.0437263E-002	2.8034954E+003	8.9979561E+001
7.9432825E+005	1.0004003E+000	4.0036402E-004	1.0004004E+000	-2.2929987E-002	9.9959970E-001	4.0004359E-004	9.9959975E-001	2.2929987E-002	8.0141634E-002	2.0028400E+002	2.0028401E+002	-8.9977074E+001	0.0000000E+000	0.0000000E+000	0.0000000E+000	8.9977074E+001	0.0000000E+000	0.0000000E+000	0.0000000E+000	-8.9977074E+001	0.0000000E+000	0.0000000E+000	0.0000000E+000	-2.2929987E-002	0.0000000E+000	0.0000000E+000	0.0000000E+000	2.2929987E-002	2.4987268E+003	8.9977074E+001
6.3095738E+005	1.0004492E+000	4.4921582E-004	1.0004493E+000	-2.5726613E-002	9.9955076E-001	4.4881241E-004	9.9955088E-001	2.5726613E-002	1.1320876E-001	2.5213026E+002	2.5213029E+002	-8.9974274E+001	0.0000000E+000	0.0000000E+000	0.0000000E+000	8.9974274E+001	0.0000000E+000	0.0000000E+000	0.0000000E+000	-8.9974274E+001	0.0000000E+000	0.0000000E+000	0.0000000E+000	-2.5726613E-002	0.0000000E+000	0.0000000E+000	0.0000000E+000	2.5726613E-002	2.2271013E+003	8.9974274E+001
5.0118722E+005	1.0005040E+000	5.0402846E-004	1.0005041E+000	-2.8864153E-002	9.9949598E-001	5.0352066E-004	9.9949610E-001	2.8864153E-002	1.5988402E-001	3.1739584E+002	3.1739587E+002	-8.9971138E+001	0.0000000E+000	0.0000000E+000	0.0000000E+000	8.9971138E+001	0.0000000E+000	0.0000000E+000	0.0000000E+000	-8.9971138E+001	0.0000000E+000	0.0000000E+000	0.0000000E+000	-2.8864153E-002	0.0000000E+000	0.0000000E+000	0.0000000E+000	2.8864153E-002	1.9850149E+003	8.9971138E+001
3.9810716E+005	1.0005655E+000	5.6552922E-004	1.0005656E+000	-3.2384120E-002	9.9943447E-001	5.6488992E-004	9.9943465E-001	3.2384120E-002	2.2584976E-001	3.9955307E+002	3.9955313E+002	-8.9967613E+001	0.0000000E+000	0.0000000E+000	0.0000000E+000	8.9967613E+001	0.0000000E+000	0.0000000E+000	0.0000000E+000	-8.9967613E+001	0.0000000E+000	0.0000000E+000	0.0000000E+000	-3.2384120E-002	0.0000000E+000	0.0000000E+000	0.0000000E+000	3.2384120E-002	1.7692552E+003	8.9967613E+001
3.1622778E+005	1.0006346E+000	6.3453423E-004	1.0006348E+000	-3.6333073E-002	9.9936545E-001	6.3372945E-004	9.9936563E-001	3.6333073E-002	3.1893435E-001	5.0297272E+002	5.0297281E+002	-8.9963669E+001	0.0000000E+000	0.0000000E+000	0.0000000E+000	8.9963669E+001	0.0000000E+000	0.0000000E+000	0.0000000E+000	-8.9963669E+001	0.0000000E+000	0.0000000E+000	0.0000000E+000	-3.6333073E-002	0.0000000E+000	0.0000000E+000	0.0000000E+000	3.6333073E-002	1.5769591E+003	8.9963669E+001
2.5118864E+005	1.0007119E+000	7.1195915E-004	1.0007122E+000	-4.0763225E-002	9.9928814E-001	7.1094616E-004	9.9928838E-001	4.0763225E-002	4.5046756E-001	6.3315613E+002	6.3315631E+002	-8.9959236E+001	0.0000000E+000	0.0000000E+000	0.0000000E+000	8.9959236E+001	0.0000000E+000	0.0000000E+000	0.0000000E+000	-8.9959236E+001	0.0000000E+000	0.0000000E+000	0.0000000E+000	-4.0763225E-002	0.0000000E+000	0.0000000E+000	0.0000000E+000	4.0763225E-002	1.4055750E+003	8.9959236E+001
1.9952623E+005	1.0007988E+000	7.9883129E-004	1.0007992E+000	-4.5733117E-002	9.9920118E-001	7.9755601E-004	9.9920148E-001	4.5733117E-002	6.3614678E-001	7.9702704E+002	7.9702728E+002	-8.9954269E+001	0.0000000E+000	0.0000000E+000	0.0000000E+000	8.9954269E+001	0.0000000E+000	0.0000000E+000	0.0000000E+000	-8.9954269E+001	0.0000000E+000	0.0000000E+000	0.0000000E+000	-4.5733117E-002	0.0000000E+000	0.0000000E+000	0.0000000E+000	4.5733117E-002	1.2528287E+003	8.9954269E+001
1.5848931E+005	1.0008963E+000	8.9630345E-004	1.0008967E+000	-5.1308405E-002	9.9910367E-001	8.9469820E-004	9.9910408E-001	5.1308405E-002	8.9844310E-001	1.0032998E+003	1.0033002E+003	-8.9948692E+001	0.0000000E+000	0.0000000E+000	0.0000000E+000	8.9948692E+001	0.0000000E+000	0.0000000E+000	0.0000000E+000	-8.9948692E+001	0.0000000E+000	0.0000000E+000	0.0000000E+000	-5.1308405E-002	0.0000000E+000	0.0000000E+000	0.0000000E+000	5.1308405E-002	1.1166936E+003	8.9948692E+001
1.2589254E+005	1.0010056E+000	1.0056690E-003	1.0010061E+000	-5.7562679E-002	9.9899441E-001	1.0036483E-003	9.9899489E-001	5.7562679E-002	1.2688493E+000	1.2629414E+003	1.2629420E+003	-8.9942436E+001	0.0000000E+000	0.0000000E+000	0.0000000E+000	8.9942436E+001	0.0000000E+000	0.0000000E+000	0.0000000E+000	-8.9942436E+001	0.0000000E+000	0.0000000E+000	0.0000000E+000	-5.7562679E-002	0.0000000E+000	0.0000000E+000	0.0000000E+000	5.7562679E-002	9.9536292E+002	8.9942436E+001
1.0000000E+005	1.0011284E+000	1.1283791E-003	1.0011290E+000	-6.4578466E-002	9.9887156E-001	1.1258355E-003	9.9887222E-001	6.4578466E-002	1.7917321E+000	1.5897535E+003	1.5897545E+003	-8.9935425E+001	0.0000000E+000	0.0000000E+000	0.0000000E+000	8.9935425E+001	0.0000000E+000	0.0000000E+000	0.0000000E+000	-8.9935425E+001	0.0000000E+000	0.0000000E+000	0.0000000E+000	-6.4578466E-002	0.0000000E+000	0.0000000E+000	0.0000000E+000	6.4578466E-002	8.8722699E+002	8.9935425E+001
7.9432820E+004	1.0012661E+000	1.2660623E-003	1.0012668E+000	-7.2448261E-002	9.9873400E-001	1.2628605E-003	9.9873477E-001	7.2448261E-002	2.5303369E+000	2.0011055E+003	2.0011071E+003	-8.9927551E+001	0.0000000E+000	0.0000000E+000	0.0000000E+000	8.9927551E+001	0.0000000E+000	0.0000000E+000	0.0000000E+000	-8.9927551E+001	0.0000000E+000	0.0000000E+000	0.0000000E+000	-7.2448261E-002	0.0000000E+000	0.0000000E+000	0.0000000E+000	7.2448261E-002	7.9085065E+002	8.9927551E+001
6.3095734E+004	1.0014205E+000	1.4205452E-003	1.0014216E+000	-8.1275731E-002	9.9857944E-001	1.4165150E-003	9.9858046E-001	8.1275731E-002	3.5730774E+000	2.5188528E+003	2.5188552E+003	-8.9918724E+001	0.0000000E+000	0.0000000E+000	0.0000000E+000	8.9918724E+001	0.0000000E+000	0.0000000E+000	0.0000000E+000	-8.9918724E+001	0.0000000E+000	0.0000000E+000	0.0000000E+000	-8.1275731E-002	0.0000000E+000	0.0000000E+000	0.0000000E+000	8.1275731E-002	7.0495508E+002	8.9918724E+001
5.0118723E+004	1.0015938E+000	1.5938779E-003	1.0015951E+000	-9.1177076E-002	9.9840617E-001	1.5888052E-003	9.9840742E-001	9.1177076E-002	5.0454445E+000	3.1704973E+003	3.1705012E+003	-8.9908821E+001	0.0000000E+000	0.0000000E+000	0.0000000E+000	8.9908821E+001	0.0000000E+000	0.0000000E+000	0.0000000E+000	-8.9908821E+001	0.0000000E+000	0.0000000E+000	0.0000000E+000	-9.1177076E-002	0.0000000E+000	0.0000000E+000	0.0000000E+000	9.1177076E-002	6.2840057E+002	8.9908821E+001
3.9810719E+004	1.0017884E+000	1.7883604E-003	1.0017899E+000	-1.0228248E-001	9.9821168E-001	1.7819755E-003	9.9821329E-001	1.0228248E-001	7.1237698E+000	3.9906418E+003	3.9906482E+003	-8.9897720E+001	0.0000000E+000	0.0000000E+000	0.0000000E+000	8.9897720E+001	0.0000000E+000	0.0000000E+000	0.0000000E+000	-8.9897720E+001	0.0000000E+000	0.0000000E+000	0.0000000E+000	-1.0228248E-001	0.0000000E+000	0.0000000E+000	0.0000000E+000	1.0228248E-001	5.6017139E+002	8.9897720E+001
3.1622777E+004	1.0020065E+000	2.0065734E-003	1.0020086E+000	-1.1473780E-001	9.9799347E-001	1.9985370E-003	9.9799550E-001	1.1473780E-001	1.0058537E+001	5.0228223E+003	5.0228325E+003	-8.9885262E+001	0.0000000E+000	0.0000000E+000	0.0000000E+000	8.9885262E+001	0.0000000E+000	0.0000000E+000	0.0000000E+000	-8.9885262E+001	0.0000000E+000	0.0000000E+000	0.0000000E+000	-1.1473780E-001	0.0000000E+000	0.0000000E+000	0.0000000E+000	1.1473780E-001	4.9936203E+002	8.9885262E+001
2.5118865E+004	1.0022514E+000	2.2514125E-003	1.0022539E+000	-1.2870644E-001	9.9774867E-001	2.2412976E-003	9.9775118E-001	1.2870644E-001	1.4201183E+001	6.3218076E+003	6.3218237E+003	-8.9871292E+001	0.0000000E+000	0.0000000E+000	0.0000000E+000	8.9871292E+001	0.0000000E+000	0.0000000E+000	0.0000000E+000	-8.9871292E+001	0.0000000E+000	0.0000000E+000	0.0000000E+000	-1.2870644E-001	0.0000000E+000	0.0000000E+000	0.0000000E+000	1.2870644E-001	4.4516559E+002	8.9871292E+001
1.9952623E+004	1.0025262E+000	2.5261263E-003	1.0025293E+000	-1.4437138E-001	9.9747396E-001	2.5133961E-003	9.9747711E-001	1.4437138E-001	2.0048416E+001	7.9564937E+003	7.9565190E+003	-8.9855629E+001	0.0000000E+000	0.0000000E+000	0.0000000E+000	8.9855629E+001	0.0000000E+000	0.0000000E+000	0.0000000E+000	-8.9855629E+001	0.0000000E+000	0.0000000E+000	0.0000000E+000	-1.4437138E-001	0.0000000E+000	0.0000000E+000	0.0000000E+000	1.4437138E-001	3.9686304E+002	8.9855629E+001
1.5848932E+004	1.0028343E+000	2.8343603E-003	1.0028384E+000	-1.6193746E-001	9.9716568E-001	2.8183386E-003	9.9716967E-001	1.6193746E-001	2.8301130E+001	1.0013536E+004	1.0013576E+004	-8.9838066E+001	0.0000000E+000	0.0000000E+000	0.0000000E+000	8.9838066E+001	0.0000000E+000	0.0000000E+000	0.0000000E+000	-8.9838066E+001	0.0000000E+000	0.0000000E+000	0.0000000E+000	-1.6193746E-001	0.0000000E+000	0.0000000E+000	0.0000000E+000	1.6193746E-001	3.5381326E+002	8.9838066E+001
1.2589254E+004	1.0031801E+000	3.1802047E-003	1.0031853E+000	-1.8163405E-001	9.9681985E-001	3.1600415E-003	9.9682486E-001	1.8163405E-001	3.9949413E+001	1.2601923E+004	1.2601986E+004	-8.9818367E+001	0.0000000E+000	0.0000000E+000	0.0000000E+000	8.9818367E+001	0.0000000E+000	0.0000000E+000	0.0000000E+000	-8.9818367E+001	0.0000000E+000	0.0000000E+000	0.0000000E+000	-1.8163405E-001	0.0000000E+000	0.0000000E+000	0.0000000E+000	1.8163405E-001	3.1544516E+002	8.9818367E+001
1.0000000E+004	1.0035683E+000	3.5682481E-003	1.0035746E+000	-2.0371778E-001	9.9643183E-001	3.5428742E-003	9.9643815E-001	2.0371778E-001	5.6387230E+001	1.5858704E+004	1.5858805E+004	-8.9796280E+001	0.0000000E+000	0.0000000E+000	0.0000000E+000	8.9796280E+001	0.0000000E+000	0.0000000E+000	0.0000000E+000	-8.9796280E+001	0.0000000E+000	0.0000000E+000	0.0000000E+000	-2.0371778E-001	0.0000000E+000	0.0000000E+000	0.0000000E+000	2.0371778E-001	2.8124957E+002	8.9796280E+001
7.9432822E+003	1.0040036E+000	4.0036403E-003	1.0040116E+000	-2.2847575E-001	9.9599648E-001	3.9717103E-003	9.9600440E-001	2.2847575E-001	7.9579460E+001	1.9956203E+004	1.9956361E+004	-8.9771523E+001	0.0000000E+000	0.0000000E+000	0.0000000E+000	8.9771523E+001	0.0000000E+000	0.0000000E+000	0.0000000E+000	-8.9771523E+001	0.0000000E+000	0.0000000E+000	0.0000000E+000	-2.2847575E-001	0.0000000E+000	0.0000000E+000	0.0000000E+000	2.2847575E-001	2.5077269E+002	8.9771523E+001
6.3095732E+003	1.0044922E+000	4.4921585E-003	1.0045022E+000	-2.5622898E-001	9.9550807E-001	4.4519808E-003	9.9551803E-001	2.5622898E-001	1.1229688E+002	2.5111051E+004	2.5111303E+004	-8.9743774E+001	0.0000000E+000	0.0000000E+000	0.0000000E+000	8.9743774E+001	0.0000000E+000	0.0000000E+000	0.0000000E+000	-8.9743774E+001	0.0000000E+000	0.0000000E+000	0.0000000E+000	-2.5622898E-001	0.0000000E+000	0.0000000E+000	0.0000000E+000	2.5622898E-001	2.2361014E+002	8.9743774E+001
5.0118726E+003	1.0050403E+000	5.0402847E-003	1.0050529E+000	-2.8733635E-001	9.9495995E-001	4.9897316E-003	9.9497247E-001	2.8733635E-001	1.5845290E+002	3.1595537E+004	3.1595934E+004	-8.9712662E+001	0.0000000E+000	0.0000000E+000	0.0000000E+000	8.9712662E+001	0.0000000E+000	0.0000000E+000	0.0000000E+000	-8.9712662E+001	0.0000000E+000	0.0000000E+000	0.0000000E+000	-2.8733635E-001	0.0000000E+000	0.0000000E+000	0.0000000E+000	2.8733635E-001	1.9940149E+002	8.9712662E+001
3.9810718E+003	1.0056553E+000	5.6552924E-003	1.0056711E+000	-3.2219884E-001	9.9434513E-001	5.5916896E-003	9.9436086E-001	3.2219884E-001	2.2354279E+002	3.9751844E+004	3.9752473E+004	-8.9677803E+001	0.0000000E+000	0.0000000E+000	0.0000000E+000	8.9677803E+001	0.0000000E+000	0.0000000E+000	0.0000000E+000	-8.9677803E+001	0.0000000E+000	0.0000000E+000	0.0000000E+000	-3.2219884E-001	0.0000000E+000	0.0000000E+000	0.0000000E+000	3.2219884E-001	1.7782552E+002	8.9677803E+001
3.1622776E+003	1.0063454E+000	6.3453424E-003	1.0063653E+000	-3.6126417E-001	9.9365520E-001	6.2653264E-003	9.9367493E-001	3.6126417E-001	3.1533151E+002	5.0009887E+004	5.0010879E+004	-8.9638733E+001	0.0000000E+000	0.0000000E+000	0.0000000E+000	8.9638733E+001	0.0000000E+000	0.0000000E+000	0.0000000E+000	-8.9638733E+001	0.0000000E+000	0.0000000E+000	0.0000000E+000	-3.6126417E-001	0.0000000E+000	0.0000000E+000	0.0000000E+000	3.6126417E-001	1.5859592E+002	8.9638733E+001
2.5118865E+003	1.0071195E+000	7.1195913E-003	1.0071448E+000	-4.0503207E-001	9.9288106E-001	7.0189354E-003	9.9290586E-001	4.0503207E-001	4.4472177E+002	6.2909664E+004	6.2911234E+004	-8.9594971E+001	0.0000000E+000	0.0000000E+000	0.0000000E+000	8.9594971E+001	0.0000000E+000	0.0000000E+000	0.0000000E+000	-8.9594971E+001	0.0000000E+000	0.0000000E+000	0.0000000E+000	-4.0503207E-001	0.0000000E+000	0.0000000E+000	0.0000000E+000	4.0503207E-001	1.4145749E+002	8.9594971E+001
1.9952623E+003	1.0079883E+000	7.9883123E-003	1.0080199E+000	-4.5405984E-001	9.9201274E-001	7.8617064E-003	9.9204391E-001	4.5405984E-001	6.2710516E+002	7.9129313E+004	7.9131797E+004	-8.9545937E+001	0.0000000E+000	0.0000000E+000	0.0000000E+000	8.9545937E+001	0.0000000E+000	0.0000000E+000	0.0000000E+000	-8.9545937E+001	0.0000000E+000	0.0000000E+000	0.0000000E+000	-4.5405984E-001	0.0000000E+000	0.0000000E+000	0.0000000E+000	4.5405984E-001	1.2618289E+002	8.9545937E+001
1.5848932E+003	1.0089630E+000	8.9630345E-003	1.0090028E+000	-5.0896865E-001	9.9103844E-001	8.8038035E-003	9.9107754E-001	5.0896865E-001	8.8408380E+002	9.9520055E+004	9.9523984E+004	-8.9491028E+001	0.0000000E+000	0.0000000E+000	0.0000000E+000	8.9491028E+001	0.0000000E+000	0.0000000E+000	0.0000000E+000	-8.9491028E+001	0.0000000E+000	0.0000000E+000	0.0000000E+000	-5.0896865E-001	0.0000000E+000	0.0000000E+000	0.0000000E+000	5.0896865E-001	1.1256935E+002	8.9491028E+001
1.2589254E+003	1.0100567E+000	1.0056690E-002	1.0101068E+000	-5.7045001E-001	9.8994529E-001	9.8564494E-003	9.8999435E-001	5.7045001E-001	1.2460645E+003	1.2515013E+005	1.2515634E+005	-8.9429550E+001	0.0000000E+000	0.0000000E+000	0.0000000E+000	8.9429550E+001	0.0000000E+000	0.0000000E+000	0.0000000E+000	-8.9429550E+001	0.0000000E+000	0.0000000E+000	0.0000000E+000	-5.7045001E-001	0.0000000E+000	0.0000000E+000	0.0000000E+000	5.7045001E-001	1.0043629E+002	8.9429550E+001
1.0000000E+003	1.0112838E+000	1.1283792E-002	1.0113467E+000	-6.3927341E-001	9.8871905E-001	1.1032018E-002	9.8878062E-001	6.3927341E-001	1.7558035E+003	1.5735953E+005	1.5736933E+005	-8.9360725E+001	0.0000000E+000	0.0000000E+000	0.0000000E+000	8.9360725E+001	0.0000000E+000	0.0000000E+000	0.0000000E+000	-8.9360725E+001	0.0000000E+000	0.0000000E+000	0.0000000E+000	-6.3927341E-001	0.0000000E+000	0.0000000E+000	0.0000000E+000	6.3927341E-001	8.9622688E+001	8.9360725E+001
7.9432825E+002	1.0126606E+000	1.2660623E-002	1.0127398E+000	-7.1629369E-001	9.8734331E-001	1.2344097E-002	9.8742050E-001	7.1629369E-001	2.4733140E+003	1.9782827E+005	1.9784372E+005	-8.9283707E+001	0.0000000E+000	0.0000000E+000	0.0000000E+000	8.9283707E+001	0.0000000E+000	0.0000000E+000	0.0000000E+000	-8.9283707E+001	0.0000000E+000	0.0000000E+000	0.0000000E+000	-7.1629369E-001	0.0000000E+000	0.0000000E+000	0.0000000E+000	7.1629369E-001	7.9985054E+001	8.9283707E+001
6.3095734E+002	1.0142055E+000	1.4205452E-002	1.0143049E+000	-8.0245996E-001	9.8580021E-001	1.3807595E-002	9.8589689E-001	8.0245996E-001	3.4828762E+003	2.4866178E+005	2.4868617E+005	-8.9197540E+001	0.0000000E+000	0.0000000E+000	0.0000000E+000	8.9197540E+001	0.0000000E+000	0.0000000E+000	0.0000000E+000	-8.9197540E+001	0.0000000E+000	0.0000000E+000	0.0000000E+000	-8.0245996E-001	0.0000000E+000	0.0000000E+000	0.0000000E+000	8.0245996E-001	7.1395508E+001	8.9197540E+001
5.0118723E+002	1.0159388E+000	1.5938779E-002	1.0160638E+000	-8.9882374E-001	9.8406905E-001	1.5438785E-002	9.8419017E-001	8.9882374E-001	4.9026919E+003	3.1249688E+005	3.1253534E+005	-8.9101173E+001	0.0000000E+000	0.0000000E+000	0.0000000E+000	8.9101173E+001	0.0000000E+000	0.0000000E+000	0.0000000E+000	-8.9101173E+001	0.0000000E+000	0.0000000E+000	0.0000000E+000	-8.9882374E-001	0.0000000E+000	0.0000000E+000	0.0000000E+000	8.9882374E-001	6.3740059E+001	8.9101173E+001
3.9810718E+002	1.0178837E+000	1.7883604E-002	1.0180407E+000	-1.0065489E+000	9.8212749E-001	1.7255390E-002	9.8227906E-001	1.0065489E+000	6.8983252E+003	3.9263406E+005	3.9269466E+005	-8.8993454E+001	0.0000000E+000	0.0000000E+000	0.0000000E+000	8.8993454E+001	0.0000000E+000	0.0000000E+000	0.0000000E+000	-8.8993454E+001	0.0000000E+000	0.0000000E+000	0.0000000E+000	-1.0065489E+000	0.0000000E+000	0.0000000E+000	0.0000000E+000	1.0065489E+000	5.6917141E+001	8.8993454E+001
3.1622775E+002	1.0200658E+000	2.0065734E-002	1.0202631E+000	-1.1269212E+000	9.7994977E-001	1.9276613E-002	9.8013937E-001	1.1269212E+000	9.7017803E+003	4.9320103E+005	4.9329644E+005	-8.8873077E+001	0.0000000E+000	0.0000000E+000	0.0000000E+000	8.8873077E+001	0.0000000E+000	0.0000000E+000	0.0000000E+000	-8.8873077E+001	0.0000000E+000	0.0000000E+000	0.0000000E+000	-1.1269212E+000	0.0000000E+000	0.0000000E+000	0.0000000E+000	1.1269212E+000	5.0836205E+001	8.8873077E+001
2.5118864E+002	1.0225141E+000	2.2514125E-002	1.0227619E+000	-1.2613575E+000	9.7750771E-001	2.1523155E-002	9.7774464E-001	1.2613575E+000	1.3637255E+004	6.1935594E+005	6.1950606E+005	-8.8738640E+001	0.0000000E+000	0.0000000E+000	0.0000000E+000	8.8738640E+001	0.0000000E+000	0.0000000E+000	0.0000000E+000	-8.8738640E+001	0.0000000E+000	0.0000000E+000	0.0000000E+000	-1.2613575E+000	0.0000000E+000	0.0000000E+000	0.0000000E+000	1.2613575E+000	4.5416557E+001	8.8738640E+001
1.9952623E+002	1.0252613E+000	2.5261270E-002	1.0255724E+000	-1.4114172E+000	9.7476941E-001	2.4017209E-002	9.7506523E-001	1.4114172E+000	1.9157641E+004	7.7753875E+005	7.7777475E+005	-8.8588585E+001	0.0000000E+000	0.0000000E+000	0.0000000E+000	8.8588585E+001	0.0000000E+000	0.0000000E+000	0.0000000E+000	-8.8588585E+001	0.0000000E+000	0.0000000E+000	0.0000000E+000	-1.4114172E+000	0.0000000E+000	0.0000000E+000	0.0000000E+000	1.4114172E+000	4.0586292E+001	8.8588585E+001
1.5848932E+002	1.0283437E+000	2.8343560E-002	1.0287342E+000	-1.5788062E+000	9.7169936E-001	2.6782310E-002	9.7206837E-001	1.5788062E+000	2.6894756E+004	9.7578038E+005	9.7615094E+005	-8.8421196E+001	0.0000000E+000	0.0000000E+000	0.0000000E+000	8.8421196E+001	0.0000000E+000	0.0000000E+000	0.0000000E+000	-8.8421196E+001	0.0000000E+000	0.0000000E+000	0.0000000E+000	-1.5788062E+000	0.0000000E+000	0.0000000E+000	0.0000000E+000	1.5788062E+000	3.6281387E+001	8.8421196E+001
1.2589254E+002	1.0318018E+000	3.1801824E-002	1.0322918E+000	-1.7653910E+000	9.6825856E-001	2.9843315E-002	9.6871835E-001	1.7653910E+000	3.7728246E+004	1.2240848E+006	1.2246660E+006	-8.8234612E+001	0.0000000E+000	0.0000000E+000	0.0000000E+000	8.8234612E+001	0.0000000E+000	0.0000000E+000	0.0000000E+000	-8.8234612E+001	0.0000000E+000	0.0000000E+000	0.0000000E+000	-1.7653910E+000	0.0000000E+000	0.0000000E+000	0.0000000E+000	1.7653910E+000	3.2444736E+001	8.8234612E+001
1.0000000E+002	1.0356814E+000	3.5683222E-002	1.0362959E+000	-1.9732803E+000	9.6440309E-001	3.3227410E-002	9.6497536E-001	1.9732803E+000	5.2883109E+004	1.5348953E+006	1.5358060E+006	-8.8026718E+001	0.0000000E+000	0.0000000E+000	0.0000000E+000	8.8026718E+001	0.0000000E+000	0.0000000E+000	0.0000000E+000	-8.8026718E+001	0.0000000E+000	0.0000000E+000	0.0000000E+000	-1.9732803E+000	0.0000000E+000	0.0000000E+000	0.0000000E+000	1.9732803E+000	2.9024323E+001	8.8026718E+001
7.9432823E+001	1.0400375E+000	4.0041469E-002	1.0408081E+000	-2.2047999E+000	9.6008068E-001	3.6963128E-002	9.6079195E-001	2.2047999E+000	7.4060992E+004	1.9236579E+006	1.9250830E+006	-8.7795197E+001	0.0000000E+000	0.0000000E+000	0.0000000E+000	8.7795197E+001	0.0000000E+000	0.0000000E+000	0.0000000E+000	-8.7795197E+001	0.0000000E+000	0.0000000E+000	0.0000000E+000	-2.2047999E+000	0.0000000E+000	0.0000000E+000	0.0000000E+000	2.2047999E+000	2.5974010E+001	8.7795197E+001
6.3095734E+001	1.0449382E+000	4.4926103E-002	1.0459036E+000	-2.4618602E+000	9.5522863E-001	4.1069124E-002	9.5611107E-001	2.4618602E+000	1.0359426E+005	2.4095030E+006	2.4117290E+006	-8.7538139E+001	0.0000000E+000	0.0000000E+000	0.0000000E+000	8.7538139E+001	0.0000000E+000	0.0000000E+000	0.0000000E+000	-8.7538139E+001	0.0000000E+000	0.0000000E+000	0.0000000E+000	-2.4618602E+000	0.0000000E+000	0.0000000E+000	0.0000000E+000	2.4618602E+000	2.3259045E+001	8.7538139E+001
5.0118725E+001	1.0504417E+000	5.0369859E-002	1.0516486E+000	-2.7452941E+000	9.4979668E-001	4.5543816E-002	9.5088798E-001	2.7452941E+000	1.4462698E+005	3.0161350E+006	3.0196005E+006	-8.7254707E+001	0.0000000E+000	0.0000000E+000	0.0000000E+000	8.7254707E+001	0.0000000E+000	0.0000000E+000	0.0000000E+000	-8.7254707E+001	0.0000000E+000	0.0000000E+000	0.0000000E+000	-2.7452941E+000	0.0000000E+000	0.0000000E+000	0.0000000E+000	2.7452941E+000	2.0854570E+001	8.7254707E+001
3.9810719E+001	1.0565535E+000	5.6417413E-002	1.0580586E+000	-3.0565541E+000	9.4378263E-001	5.0395723E-002	9.4512719E-001	3.0565541E+000	2.0147177E+005	3.7730460E+006	3.7784213E+006	-8.6943443E+001	0.0000000E+000	0.0000000E+000	0.0000000E+000	8.6943443E+001	0.0000000E+000	0.0000000E+000	0.0000000E+000	-8.6943443E+001	0.0000000E+000	0.0000000E+000	0.0000000E+000	-3.0565541E+000	0.0000000E+000	0.0000000E+000	0.0000000E+000	3.0565541E+000	1.8727436E+001	8.6943443E+001
3.1622776E+001	1.0632266E+000	6.3216977E-002	1.0651042E+000	-3.4026678E+000	9.3722010E-001	5.5724926E-002	9.3887526E-001	3.4026678E+000	2.8045888E+005	4.7169550E+006	4.7252855E+006	-8.6597336E+001	0.0000000E+000	0.0000000E+000	0.0000000E+000	8.6597336E+001	0.0000000E+000	0.0000000E+000	0.0000000E+000	-8.6597336E+001	0.0000000E+000	0.0000000E+000	0.0000000E+000	-3.4026678E+000	0.0000000E+000	0.0000000E+000	0.0000000E+000	3.4026678E+000	1.6818687E+001	8.6597336E+001
2.5118864E+001	1.0704724E+000	7.1106650E-002	1.0728314E+000	-3.8003173E+000	9.3006331E-001	6.1779909E-002	9.3211293E-001	3.8003173E+000	3.9144184E+005	5.8929485E+006	5.9059350E+006	-8.6199684E+001	0.0000000E+000	0.0000000E+000	0.0000000E+000	8.6199684E+001	0.0000000E+000	0.0000000E+000	0.0000000E+000	-8.6199684E+001	0.0000000E+000	0.0000000E+000	0.0000000E+000	-3.8003173E+000	0.0000000E+000	0.0000000E+000	0.0000000E+000	3.8003173E+000	1.5054462E+001	8.6199684E+001
1.9952623E+001	1.0785481E+000	8.0585107E-002	1.0815544E+000	-4.2729883E+000	9.2202514E-001	6.8890296E-002	9.2459518E-001	4.2729883E+000	5.4951313E+005	7.3546655E+006	7.3751655E+006	-8.5727013E+001	0.0000000E+000	0.0000000E+000	0.0000000E+000	8.5727013E+001	0.0000000E+000	0.0000000E+000	0.0000000E+000	-8.5727013E+001	0.0000000E+000	0.0000000E+000	0.0000000E+000	-4.2729883E+000	0.0000000E+000	0.0000000E+000	0.0000000E+000	4.2729883E+000	1.3383963E+001	8.5727013E+001
1.5848932E+001	1.0881058E+000	9.2133909E-002	1.0919994E+000	-4.8398995E+000	9.1248614E-001	7.7263556E-002	9.1575140E-001	4.8398995E+000	7.7588013E+005	9.1631840E+006	9.1959740E+006	-8.5160103E+001	0.0000000E+000	0.0000000E+000	0.0000000E+000	8.5160103E+001	0.0000000E+000	0.0000000E+000	0.0000000E+000	-8.5160103E+001	0.0000000E+000	0.0000000E+000	0.0000000E+000	-4.8398995E+000	0.0000000E+000	0.0000000E+000	0.0000000E+000	4.8398995E+000	1.1810047E+001	8.5160103E+001
1.2589254E+001	1.1002189E+000	1.0595154E-001	1.1053088E+000	-5.5006452E+000	9.0055841E-001	8.6724147E-002	9.0472454E-001	5.5006452E+000	1.0963781E+006	1.1384972E+007	1.1437641E+007	-8.4499352E+001	0.0000000E+000	0.0000000E+000	0.0000000E+000	8.4499352E+001	0.0000000E+000	0.0000000E+000	0.0000000E+000	-8.4499352E+001	0.0000000E+000	0.0000000E+000	0.0000000E+000	-5.5006452E+000	0.0000000E+000	0.0000000E+000	0.0000000E+000	5.5006452E+000	1.0384171E+001	8.4499352E+001
1.0000000E+001	1.1162646E+000	1.2166097E-001	1.1228749E+000	-6.2200799E+000	8.8532841E-001	9.6491389E-002	8.9057118E-001	6.2200799E+000	1.5357076E+006	1.4090440E+007	1.4173881E+007	-8.3779922E+001	0.0000000E+000	0.0000000E+000	0.0000000E+000	8.3779922E+001	0.0000000E+000	0.0000000E+000	0.0000000E+000	-8.3779922E+001	0.0000000E+000	0.0000000E+000	0.0000000E+000	-6.2200799E+000	0.0000000E+000	0.0000000E+000	0.0000000E+000	6.2200799E+000	9.1752071E+000	8.3779922E+001
7.9432821E+000	1.1376212E+000	1.3803867E-001	1.1459653E+000	-6.9184341E+000	8.6627281E-001	1.0511333E-001	8.7262672E-001	6.9184341E+000	2.1060950E+006	1.7357006E+007	1.7484316E+007	-8.3081566E+001	0.0000000E+000	0.0000000E+000	0.0000000E+000	8.3081566E+001	0.0000000E+000	0.0000000E+000	0.0000000E+000	-8.3081566E+001	0.0000000E+000	0.0000000E+000	0.0000000E+000	-6.9184341E+000	0.0000000E+000	0.0000000E+000	0.0000000E+000	6.9184341E+000	8.2413225E+000	8.3081566E+001
6.3095737E+000	1.1651239E+000	1.5289603E-001	1.1751132E+000	-7.4760494E+000	8.4374791E-001	1.1072273E-001	8.5098183E-001	7.4760494E+000	2.7929103E+006	2.1283000E+007	2.1465470E+007	-8.2523949E+001	0.0000000E+000	0.0000000E+000	0.0000000E+000	8.2523949E+001	0.0000000E+000	0.0000000E+000	0.0000000E+000	-8.2523949E+001	0.0000000E+000	0.0000000E+000	0.0000000E+000	-7.4760494E+000	0.0000000E+000	0.0000000E+000	0.0000000E+000	7.4760494E+000	7.6203675E+000	8.2523949E+001
5.0118723E+000	1.1983570E+000	1.6337858E-001	1.2094429E+000	-7.7635827E+000	8.1924820E-001	1.1169261E-001	8.2682699E-001	7.7635827E+000	3.5468630E+006	2.6015708E+007	2.6256376E+007	-8.2236420E+001	0.0000000E+000	0.0000000E+000	0.0000000E+000	8.2236420E+001	0.0000000E+000	0.0000000E+000	0.0000000E+000	-8.2236420E+001	0.0000000E+000	0.0000000E+000	0.0000000E+000	-7.7635827E+000	0.0000000E+000	0.0000000E+000	0.0000000E+000	7.7635827E+000	7.3348475E+000	8.2236420E+001
3.9810717E+000	1.2351925E+000	1.6687152E-001	1.2464135E+000	-7.6939387E+000	7.9507917E-001	1.0741328E-001	8.0230200E-001	7.6939387E+000	4.2941585E+006	3.1785604E+007	3.2074358E+007	-8.2306061E+001	0.0000000E+000	0.0000000E+000	0.0000000E+000	8.2306061E+001	0.0000000E+000	0.0000000E+000	0.0000000E+000	-8.2306061E+001	0.0000000E+000	0.0000000E+000	0.0000000E+000	-7.6939387E+000	0.0000000E+000	0.0000000E+000	0.0000000E+000	7.6939387E+000	7.4020572E+000	8.2306061E+001
3.1622777E+000	1.2721561E+000	1.6219087E-001	1.2824535E+000	-7.2656088E+000	7.7349436E-001	9.8615043E-002	7.7975535E-001	7.2656088E+000	4.9632175E+006	3.8929356E+007	3.9244468E+007	-8.2734390E+001	0.0000000E+000	0.0000000E+000	0.0000000E+000	8.2734390E+001	0.0000000E+000	0.0000000E+000	0.0000000E+000	-8.2734390E+001	0.0000000E+000	0.0000000E+000	0.0000000E+000	-7.2656088E+000	0.0000000E+000	0.0000000E+000	0.0000000E+000	7.2656088E+000	7.8435740E+000	8.2734390E+001
2.5118864E+000	1.3056691E+000	1.5020591E-001	1.3142805E+000	-6.5625339E+000	7.5588715E-001	8.6958267E-002	7.6087260E-001	6.5625339E+000	5.5097355E+006	4.7893556E+007	4.8209436E+007	-8.3437469E+001	0.0000000E+000	0.0000000E+000	0.0000000E+000	8.3437469E+001	0.0000000E+000	0.0000000E+000	0.0000000E+000	-8.3437469E+001	0.0000000E+000	0.0000000E+000	0.0000000E+000	-6.5625339E+000	0.0000000E+000	0.0000000E+000	0.0000000E+000	6.5625339E+000	8.6925278E+000	8.3437469E+001
1.9952623E+000	1.3333524E+000	1.3334659E-001	1.3400038E+000	-5.7110753E+000	7.4256229E-001	7.4262537E-002	7.4626648E-001	5.7110753E+000	5.9236575E+006	5.9231544E+007	5.9527016E+007	-8.4288925E+001	0.0000000E+000	0.0000000E+000	0.0000000E+000	8.4288925E+001	0.0000000E+000	0.0000000E+000	0.0000000E+000	-8.4288925E+001	0.0000000E+000	0.0000000E+000	0.0000000E+000	-5.7110753E+000	0.0000000E+000	0.0000000E+000	0.0000000E+000	5.7110753E+000	9.9991493E+000	8.4288925E+001
1.5848932E+000	1.3545094E+000	1.1444361E-001	1.3593354E+000	-4.8294973E+000	7.3304176E-001	6.1935302E-002	7.3565358E-001	4.8294973E+000	6.2195430E+006	7.3612040E+007	7.3874320E+007	-8.5170502E+001	0.0000000E+000	0.0000000E+000	0.0000000E+000	8.5170502E+001	0.0000000E+000	0.0000000E+000	0.0000000E+000	-8.5170502E+001	0.0000000E+000	0.0000000E+000	0.0000000E+000	-4.8294973E+000	0.0000000E+000	0.0000000E+000	0.0000000E+000	4.8294973E+000	1.1835606E+001	8.5170502E+001
1.2589254E+000	1.3697354E+000	9.5778942E-002	1.3730799E+000	-3.9999051E+000	7.2651571E-001	5.0801720E-002	7.2828972E-001	3.9999051E+000	6.4224235E+006	9.1847040E+007	9.2071312E+007	-8.6000092E+001	0.0000000E+000	0.0000000E+000	0.0000000E+000	8.6000092E+001	0.0000000E+000	0.0000000E+000	0.0000000E+000	-8.6000092E+001	0.0000000E+000	0.0000000E+000	0.0000000E+000	-3.9999051E+000	0.0000000E+000	0.0000000E+000	0.0000000E+000	3.9999051E+000	1.4301007E+001	8.6000092E+001
1.0000000E+000	1.3802252E+000	7.8747109E-002	1.3824698E+000	-3.2654023E+000	7.2216868E-001	4.1202474E-002	7.2334313E-001	3.2654023E+000	6.5575805E+006	1.1493673E+008	1.1512364E+008	-8.6734596E+001	0.0000000E+000	0.0000000E+000	0.0000000E+000	8.6734596E+001	0.0000000E+000	0.0000000E+000	0.0000000E+000	-8.6734596E+001	0.0000000E+000	0.0000000E+000	0.0000000E+000	-3.2654023E+000	0.0000000E+000	0.0000000E+000	0.0000000E+000	3.2654023E+000	1.7527313E+001	8.6734596E+001
7.9432821E-001	1.3872365E+000	6.3967235E-002	1.3887105E+000	-2.6401107E+000	7.1932817E-001	3.3169132E-002	7.2009248E-001	2.6401107E+000	6.6459150E+006	1.4412762E+008	1.4428077E+008	-8.7359886E+001	0.0000000E+000	0.0000000E+000	0.0000000E+000	8.7359886E+001	0.0000000E+000	0.0000000E+000	0.0000000E+000	-8.7359886E+001	0.0000000E+000	0.0000000E+000	0.0000000E+000	-2.6401107E+000	0.0000000E+000	0.0000000E+000	0.0000000E+000	2.6401107E+000	2.1686672E+001	8.7359886E+001
6.3095737E-001	1.3918284E+000	5.1547755E-002	1.3927827E+000	-2.1210370E+000	7.1749520E-001	2.6573151E-002	7.1798712E-001	2.1210370E+000	6.7029175E+006	1.8098357E+008	1.8110765E+008	-8.7878960E+001	0.0000000E+000	0.0000000E+000	0.0000000E+000	8.7878960E+001	0.0000000E+000	0.0000000E+000	0.0000000E+000	-8.7878960E+001	0.0000000E+000	0.0000000E+000	0.0000000E+000	-2.1210370E+000	0.0000000E+000	0.0000000E+000	0.0000000E+000	2.1210370E+000	2.7000757E+001	8.7878960E+001
5.0118721E-001	1.3947958E+000	4.1324042E-002	1.3954078E+000	-1.6970232E+000	7.1632206E-001	2.1222692E-002	7.1663636E-001	1.6970232E+000	6.7393840E+006	2.2747229E+008	2.2757210E+008	-8.8302979E+001	0.0000000E+000	0.0000000E+000	0.0000000E+000	8.8302979E+001	0.0000000E+000	0.0000000E+000	0.0000000E+000	-8.8302979E+001	0.0000000E+000	0.0000000E+000	0.0000000E+000	-1.6970232E+000	0.0000000E+000	0.0000000E+000	0.0000000E+000	1.6970232E+000	3.3752647E+001	8.8302979E+001
3.9810717E-001	1.3966969E+000	3.3017322E-002	1.3970871E+000	-1.3541958E+000	7.1557510E-001	1.6915893E-002	7.1577501E-001	1.3541958E+000	6.7626150E+006	2.8607197E+008	2.8615190E+008	-8.8645805E+001	0.0000000E+000	0.0000000E+000	0.0000000E+000	8.8645805E+001	0.0000000E+000	0.0000000E+000	0.0000000E+000	-8.8645805E+001	0.0000000E+000	0.0000000E+000	0.0000000E+000	-1.3541958E+000	0.0000000E+000	0.0000000E+000	0.0000000E+000	1.3541958E+000	4.2301945E+001	8.8645805E+001
3.1622776E-001	1.3979080E+000	2.6323995E-002	1.3981558E+000	-1.0788088E+000	7.1510106E-001	1.3466061E-002	7.1522784E-001	1.0788088E+000	6.7773815E+006	3.5990477E+008	3.5996858E+008	-8.8921188E+001	0.0000000E+000	0.0000000E+000	0.0000000E+000	8.8921188E+001	0.0000000E+000	0.0000000E+000	0.0000000E+000	-8.8921188E+001	0.0000000E+000	0.0000000E+000	0.0000000E+000	-1.0788088E+000	0.0000000E+000	0.0000000E+000	0.0000000E+000	1.0788088E+000	5.3103947E+001	8.8921188E+001
2.5118864E-001	1.3986769E+000	2.0959008E-002	1.3988340E+000	-8.5850626E-001	7.1480089E-001	1.0711207E-002	7.1488112E-001	8.5850626E-001	6.7866910E+006	4.5290304E+008	4.5295389E+008	-8.9141495E+001	0.0000000E+000	0.0000000E+000	0.0000000E+000	8.9141495E+001	0.0000000E+000	0.0000000E+000	0.0000000E+000	-8.9141495E+001	0.0000000E+000	0.0000000E+000	0.0000000E+000	-8.5850626E-001	0.0000000E+000	0.0000000E+000	0.0000000E+000	8.5850626E-001	6.6733925E+001	8.9141495E+001
1.9952624E-001	1.3991640E+000	1.6673045E-002	1.3992633E+000	-6.8272913E-001	7.1461105E-001	8.5156159E-003	7.1466178E-001	6.8272913E-001	6.7926275E+006	5.7001971E+008	5.7006016E+008	-8.9317268E+001	0.0000000E+000	0.0000000E+000	0.0000000E+000	8.9317268E+001	0.0000000E+000	0.0000000E+000	0.0000000E+000	-8.9317268E+001	0.0000000E+000	0.0000000E+000	0.0000000E+000	-6.8272913E-001	0.0000000E+000	0.0000000E+000	0.0000000E+000	6.8272913E-001	8.3917725E+001	8.9317268E+001
1.5848932E-001	1.3994720E+000	1.3256287E-002	1.3995347E+000	-5.4270941E-001	7.1449113E-001	6.7679095E-003	7.1452320E-001	5.4270941E-001	6.7963325E+006	7.1749184E+008	7.1752403E+008	-8.9457291E+001	0.0000000E+000	0.0000000E+000	0.0000000E+000	8.9457291E+001	0.0000000E+000	0.0000000E+000	0.0000000E+000	-8.9457291E+001	0.0000000E+000	0.0000000E+000	0.0000000E+000	-5.4270941E-001	0.0000000E+000	0.0000000E+000	0.0000000E+000	5.4270941E-001	1.0557043E+002	8.9457291E+001
1.2589253E-001	1.3996667E+000	1.0536076E-002	1.3997062E+000	-4.3128929E-001	7.1441537E-001	5.3778049E-003	7.1443564E-001	4.3128929E-001	6.7986955E+006	9.0317299E+008	9.0319859E+008	-8.9568710E+001	0.0000000E+000	0.0000000E+000	0.0000000E+000	8.9568710E+001	0.0000000E+000	0.0000000E+000	0.0000000E+000	-8.9568710E+001	0.0000000E+000	0.0000000E+000	0.0000000E+000	-4.3128929E-001	0.0000000E+000	0.0000000E+000	0.0000000E+000	4.3128929E-001	1.3284517E+002	8.9568710E+001
1.0000000E-001	1.3997896E+000	8.3722295E-003	1.3998146E+000	-3.4268555E-001	7.1436757E-001	4.2726770E-003	7.1438032E-001	3.4268555E-001	6.8001040E+006	1.1369513E+009	1.1369716E+009	-8.9657318E+001	0.0000000E+000	0.0000000E+000	0.0000000E+000	8.9657318E+001	0.0000000E+000	0.0000000E+000	0.0000000E+000	-8.9657318E+001	0.0000000E+000	0.0000000E+000	0.0000000E+000	-3.4268555E-001	0.0000000E+000	0.0000000E+000	0.0000000E+000	3.4268555E-001	1.6719437E+002	8.9657318E+001
7.9432823E-002	1.3998672E+000	6.6518658E-003	1.3998830E+000	-2.7225509E-001	7.1433735E-001	3.3943765E-003	7.1434540E-001	2.7225509E-001	6.8011110E+006	1.4312763E+009	1.4312924E+009	-8.9727745E+001	0.0000000E+000	0.0000000E+000	0.0000000E+000	8.9727745E+001	0.0000000E+000	0.0000000E+000	0.0000000E+000	-8.9727745E+001	0.0000000E+000	0.0000000E+000	0.0000000E+000	-2.7225509E-001	0.0000000E+000	0.0000000E+000	0.0000000E+000	2.7225509E-001	2.1044730E+002	8.9727745E+001
6.3095734E-002	1.3999162E+000	5.2845511E-003	1.3999262E+000	-2.1628511E-001	7.1431834E-001	2.6964839E-003	7.1432340E-001	2.1628511E-001	6.8017260E+006	1.8018221E+009	1.8018349E+009	-8.9783714E+001	0.0000000E+000	0.0000000E+000	0.0000000E+000	8.9783714E+001	0.0000000E+000	0.0000000E+000	0.0000000E+000	-8.9783714E+001	0.0000000E+000	0.0000000E+000	0.0000000E+000	-2.1628511E-001	0.0000000E+000	0.0000000E+000	0.0000000E+000	2.1628511E-001	2.6490732E+002	8.9783714E+001
5.0118722E-002	1.3999472E+000	4.1980622E-003	1.3999534E+000	-1.7181401E-001	7.1430629E-001	2.1420112E-003	7.1430951E-001	1.7181401E-001	6.8020805E+006	2.2683215E+009	2.2683318E+009	-8.9828186E+001	0.0000000E+000	0.0000000E+000	0.0000000E+000	8.9828186E+001	0.0000000E+000	0.0000000E+000	0.0000000E+000	-8.9828186E+001	0.0000000E+000	0.0000000E+000	0.0000000E+000	-1.7181401E-001	0.0000000E+000	0.0000000E+000	0.0000000E+000	1.7181401E-001	3.3347461E+002	8.9828186E+001
3.9810717E-002	1.3999666E+000	3.3348370E-003	1.3999707E+000	-1.3648306E-001	7.1429867E-001	1.7015189E-003	7.1430069E-001	1.3648306E-001	6.8022770E+006	2.8556170E+009	2.8556252E+009	-8.9863518E+001	0.0000000E+000	0.0000000E+000	0.0000000E+000	8.9863518E+001	0.0000000E+000	0.0000000E+000	0.0000000E+000	-8.9863518E+001	0.0000000E+000	0.0000000E+000	0.0000000E+000	-1.3648306E-001	0.0000000E+000	0.0000000E+000	0.0000000E+000	1.3648306E-001	4.1980060E+002	8.9863518E+001
3.1622775E-002	1.3999790E+000	2.6490542E-003	1.3999815E+000	-1.0841551E-001	7.1429390E-001	1.3515940E-003	7.1429515E-001	1.0841551E-001	6.8023520E+006	3.5949850E+009	3.5949914E+009	-8.9891586E+001	0.0000000E+000	0.0000000E+000	0.0000000E+000	8.9891586E+001	0.0000000E+000	0.0000000E+000	0.0000000E+000	-8.9891586E+001	0.0000000E+000	0.0000000E+000	0.0000000E+000	-1.0841551E-001	0.0000000E+000	0.0000000E+000	0.0000000E+000	1.0841551E-001	5.2848260E+002	8.9891586E+001
2.5118865E-002	1.3999867E+000	2.1042682E-003	1.3999883E+000	-8.6119100E-002	7.1429086E-001	1.0736242E-003	7.1429169E-001	8.6119100E-002	6.8026795E+006	4.5257989E+009	4.5258040E+009	-8.9913879E+001	0.0000000E+000	0.0000000E+000	0.0000000E+000	8.9913879E+001	0.0000000E+000	0.0000000E+000	0.0000000E+000	-8.9913879E+001	0.0000000E+000	0.0000000E+000	0.0000000E+000	-8.6119100E-002	0.0000000E+000	0.0000000E+000	0.0000000E+000	8.6119100E-002	6.6530817E+002	8.9913879E+001
1.9952623E-002	1.3999916E+000	1.6715045E-003	1.3999926E+000	-6.8407632E-002	7.1428895E-001	8.5281744E-004	7.1428949E-001	6.8407632E-002	6.8023730E+006	5.6976276E+009	5.6976317E+009	-8.9931595E+001	0.0000000E+000	0.0000000E+000	0.0000000E+000	8.9931595E+001	0.0000000E+000	0.0000000E+000	0.0000000E+000	-8.9931595E+001	0.0000000E+000	0.0000000E+000	0.0000000E+000	-6.8407632E-002	0.0000000E+000	0.0000000E+000	0.0000000E+000	6.8407632E-002	8.3756378E+002	8.9931595E+001
1.5848933E-002	1.3999947E+000	1.3277357E-003	1.3999953E+000	-5.4338515E-002	7.1428782E-001	6.7742076E-004	7.1428812E-001	5.4338515E-002	6.8024110E+006	7.1728763E+009	7.1728794E+009	-8.9945663E+001	0.0000000E+000	0.0000000E+000	0.0000000E+000	8.9945663E+001	0.0000000E+000	0.0000000E+000	0.0000000E+000	-8.9945663E+001	0.0000000E+000	0.0000000E+000	0.0000000E+000	-5.4338515E-002	0.0000000E+000	0.0000000E+000	0.0000000E+000	5.4338515E-002	1.0544227E+003	8.9945663E+001
1.2589254E-002	1.3999966E+000	1.0546643E-003	1.3999971E+000	-4.3162815E-002	7.1428698E-001	5.3809624E-004	7.1428716E-001	4.3162815E-002	6.8021550E+006	9.0301051E+009	9.0301082E+009	-8.9956841E+001	0.0000000E+000	0.0000000E+000	0.0000000E+000	8.9956841E+001	0.0000000E+000	0.0000000E+000	0.0000000E+000	-8.9956841E+001	0.0000000E+000	0.0000000E+000	0.0000000E+000	-4.3162815E-002	0.0000000E+000	0.0000000E+000	0.0000000E+000	4.3162815E-002	1.3274335E+003	8.9956841E+001
9.9999998E-003	1.3999979E+000	8.3775265E-004	1.3999982E+000	-3.4285542E-002	7.1428651E-001	4.2742593E-004	7.1428663E-001	3.4285542E-002	6.8028855E+006	1.1368224E+010	1.1368226E+010	-8.9965714E+001	0.0000000E+000	0.0000000E+000	0.0000000E+000	8.9965714E+001	0.0000000E+000	0.0000000E+000	0.0000000E+000	-8.9965714E+001	0.0000000E+000	0.0000000E+000	0.0000000E+000	-3.4285542E-002	0.0000000E+000	0.0000000E+000	0.0000000E+000	3.4285542E-002	1.6711353E+003	8.9965714E+001