EC-Lab ASCII FILE
Nb header lines : 3                           
freq/Hz	Re(Z)/Ohm	-Im(Z)/Ohm	|Z|/Ohm	Phase(Z)/deg	Re(Y)/Ohm-1	Im(Y)/Ohm-1	|Y|/Ohm-1	Phase(Y)/deg	Re(C)/nF	Im(C)/nF	|C|/nF	Phase(C)/deg	Re(M)	Im(M)	|M|	Phase(M)/deg	Re(Permittivity)	Im(Permittivity)	|Permittivity|	Phase(Permittivity)/deg	Re(Resistivity)/Ohm.cm	Im(Resistivity)/Ohm.cm	|Resistivity|/Ohm.cm	Phase(Resistivity)/deg	Re(Conductivity)/mS/cm	Im(Conductivity)/mS/cm	|Conductivity|/mS/cm	Phase(Conductivity)/deg	Tan(Delta)	Loss Angle(Delta)/deg	
1.0000000E+006	1.0000532E-001	5.3192302E-006	1.0000532E-001	-3.0475324E-003	9.9994678E+000	5.3186645E-004	9.9994678E+000	3.0475324E-003	8.4554628E-002	1.5914648E+003	1.5914648E+003	-8.9996956E+001	0.0000000E+000	0.0000000E+000	0.0000000E+000	8.9996956E+001	0.0000000E+000	0.0000000E+000	0.0000000E+000	-8.9996956E+001	0.0000000E+000	0.0000000E+000	0.0000000E+000	-3.0475324E-003	0.0000000E+000	0.0000000E+000	0.0000000E+000	3.0475324E-003	1.8800713E+004	8.9996956E+001
7.9432825E+005	1.0000597E-001	5.9682748E-006	1.0000597E-001	-3.4193655E-003	9.9994030E+000	5.9675623E-004	9.9994030E+000	3.4193655E-003	1.1951975E-001	2.0035225E+003	2.0035225E+003	-8.9996582E+001	0.0000000E+000	0.0000000E+000	0.0000000E+000	8.9996582E+001	0.0000000E+000	0.0000000E+000	0.0000000E+000	-8.9996582E+001	0.0000000E+000	0.0000000E+000	0.0000000E+000	-3.4193655E-003	0.0000000E+000	0.0000000E+000	0.0000000E+000	3.4193655E-003	1.6756262E+004	8.9996582E+001
6.3095738E+005	1.0000670E-001	6.6965140E-006	1.0000670E-001	-3.8365631E-003	9.9993305E+000	6.6956173E-004	9.9993305E+000	3.8365631E-003	1.6893764E-001	2.5222666E+003	2.5222666E+003	-8.9996162E+001	0.0000000E+000	0.0000000E+000	0.0000000E+000	8.9996162E+001	0.0000000E+000	0.0000000E+000	0.0000000E+000	-8.9996162E+001	0.0000000E+000	0.0000000E+000	0.0000000E+000	-3.8365631E-003	0.0000000E+000	0.0000000E+000	0.0000000E+000	3.8365631E-003	1.4934144E+004	8.9996162E+001
5.0118722E+005	1.0000751E-001	7.5136127E-006	1.0000751E-001	-4.3046596E-003	9.9992485E+000	7.5124839E-004	9.9992485E+000	4.3046596E-003	2.3847018E-001	3.1753203E+003	3.1753203E+003	-8.9995697E+001	0.0000000E+000	0.0000000E+000	0.0000000E+000	8.9995697E+001	0.0000000E+000	0.0000000E+000	0.0000000E+000	-8.9995697E+001	0.0000000E+000	0.0000000E+000	0.0000000E+000	-4.3046596E-003	0.0000000E+000	0.0000000E+000	0.0000000E+000	4.3046596E-003	1.3310177E+004	8.9995697E+001
3.9810716E+005	1.0000843E-001	8.4304120E-006	1.0000843E-001	-4.8298631E-003	9.9991570E+000	8.4289908E-004	9.9991570E+000	4.8298631E-003	3.3694166E-001	3.9974548E+003	3.9974548E+003	-8.9995171E+001	0.0000000E+000	0.0000000E+000	0.0000000E+000	8.9995171E+001	0.0000000E+000	0.0000000E+000	0.0000000E+000	-8.9995171E+001	0.0000000E+000	0.0000000E+000	0.0000000E+000	-4.8298631E-003	0.0000000E+000	0.0000000E+000	0.0000000E+000	4.8298631E-003	1.1862816E+004	8.9995171E+001
3.1622778E+005	1.0000946E-001	9.4590778E-006	1.0000946E-001	-5.4191398E-003	9.9990549E+000	9.4572891E-004	9.9990549E+000	5.4191398E-003	4.7577855E-001	5.0324453E+003	5.0324453E+003	-8.9994583E+001	0.0000000E+000	0.0000000E+000	0.0000000E+000	8.9994583E+001	0.0000000E+000	0.0000000E+000	0.0000000E+000	-8.9994583E+001	0.0000000E+000	0.0000000E+000	0.0000000E+000	-5.4191398E-003	0.0000000E+000	0.0000000E+000	0.0000000E+000	5.4191398E-003	1.0572854E+004	8.9994583E+001
2.5118864E+005	1.0001061E-001	1.0613260E-005	1.0001061E-001	-6.0803047E-003	9.9989386E+000	1.0611007E-003	9.9989386E+000	6.0803047E-003	6.7235684E-001	6.3354004E+003	6.3354004E+003	-8.9993919E+001	0.0000000E+000	0.0000000E+000	0.0000000E+000	8.9993919E+001	0.0000000E+000	0.0000000E+000	0.0000000E+000	-8.9993919E+001	0.0000000E+000	0.0000000E+000	0.0000000E+000	-6.0803047E-003	0.0000000E+000	0.0000000E+000	0.0000000E+000	6.0803047E-003	9.4231748E+003	8.9993919E+001
1.9952623E+005	1.0001191E-001	1.1908273E-005	1.0001191E-001	-6.8221255E-003	9.9988098E+000	1.1905438E-003	9.9988098E+000	6.8221255E-003	9.4945282E-001	7.9756929E+003	7.9756929E+003	-8.9993179E+001	0.0000000E+000	0.0000000E+000	0.0000000E+000	8.9993179E+001	0.0000000E+000	0.0000000E+000	0.0000000E+000	-8.9993179E+001	0.0000000E+000	0.0000000E+000	0.0000000E+000	-6.8221255E-003	0.0000000E+000	0.0000000E+000	0.0000000E+000	6.8221255E-003	8.3985234E+003	8.9993179E+001
1.5848931E+005	1.0001336E-001	1.3361303E-005	1.0001336E-001	-7.6544401E-003	9.9986639E+000	1.3357733E-003	9.9986639E+000	7.6544401E-003	1.3410053E+000	1.0040657E+004	1.0040657E+004	-8.9992348E+001	0.0000000E+000	0.0000000E+000	0.0000000E+000	8.9992348E+001	0.0000000E+000	0.0000000E+000	0.0000000E+000	-8.9992348E+001	0.0000000E+000	0.0000000E+000	0.0000000E+000	-7.6544401E-003	0.0000000E+000	0.0000000E+000	0.0000000E+000	7.6544401E-003	7.4852998E+003	8.9992348E+001
1.2589254E+005	1.0001499E-001	1.4991629E-005	1.0001499E-001	-8.5882824E-003	9.9985008E+000	1.4987133E-003	9.9985008E+000	8.5882824E-003	1.8952254E+000	1.2640231E+004	1.2640231E+004	-8.9991409E+001	0.0000000E+000	0.0000000E+000	0.0000000E+000	8.9991409E+001	0.0000000E+000	0.0000000E+000	0.0000000E+000	-8.9991409E+001	0.0000000E+000	0.0000000E+000	0.0000000E+000	-8.5882824E-003	0.0000000E+000	0.0000000E+000	0.0000000E+000	8.5882824E-003	6.6713892E+003	8.9991409E+001
1.0000000E+005	1.0001682E-001	1.6820883E-005	1.0001682E-001	-9.6360352E-003	9.9983177E+000	1.6815225E-003	9.9983177E+000	9.6360352E-003	2.6761954E+000	1.5912815E+004	1.5912815E+004	-8.9990364E+001	0.0000000E+000	0.0000000E+000	0.0000000E+000	8.9990364E+001	0.0000000E+000	0.0000000E+000	0.0000000E+000	-8.9990364E+001	0.0000000E+000	0.0000000E+000	0.0000000E+000	-9.6360352E-003	0.0000000E+000	0.0000000E+000	0.0000000E+000	9.6360352E-003	5.9459912E+003	8.9990364E+001
7.9432820E+004	1.0001887E-001	1.8873343E-005	1.0001887E-001	-1.0811588E-002	9.9981127E+000	1.8866219E-003	9.9981127E+000	1.0811588E-002	3.7798581E+000	2.0032641E+004	2.0032641E+004	-8.9989189E+001	0.0000000E+000	0.0000000E+000	0.0000000E+000	8.9989189E+001	0.0000000E+000	0.0000000E+000	0.0000000E+000	-8.9989189E+001	0.0000000E+000	0.0000000E+000	0.0000000E+000	-1.0811588E-002	0.0000000E+000	0.0000000E+000	0.0000000E+000	1.0811588E-002	5.2994785E+003	8.9989189E+001
6.3095734E+004	1.0002118E-001	2.1176238E-005	1.0002118E-001	-1.2130521E-002	9.9978828E+000	2.1167272E-003	9.9978828E+000	1.2130521E-002	5.3394032E+000	2.5219018E+004	2.5219018E+004	-8.9987869E+001	0.0000000E+000	0.0000000E+000	0.0000000E+000	8.9987869E+001	0.0000000E+000	0.0000000E+000	0.0000000E+000	-8.9987869E+001	0.0000000E+000	0.0000000E+000	0.0000000E+000	-1.2130521E-002	0.0000000E+000	0.0000000E+000	0.0000000E+000	1.2130521E-002	4.7232739E+003	8.9987869E+001
5.0118723E+004	1.0002376E-001	2.3760129E-005	1.0002376E-001	-1.3610317E-002	9.9976244E+000	2.3748842E-003	9.9976244E+000	1.3610317E-002	7.5418739E+000	3.1748045E+004	3.1748045E+004	-8.9986389E+001	0.0000000E+000	0.0000000E+000	0.0000000E+000	8.9986389E+001	0.0000000E+000	0.0000000E+000	0.0000000E+000	-8.9986389E+001	0.0000000E+000	0.0000000E+000	0.0000000E+000	-1.3610317E-002	0.0000000E+000	0.0000000E+000	0.0000000E+000	1.3610317E-002	4.2097314E+003	8.9986389E+001
3.9810719E+004	1.0002666E-001	2.6659303E-005	1.0002666E-001	-1.5270584E-002	9.9973345E+000	2.6645092E-003	9.9973345E+000	1.5270584E-002	1.0654569E+001	3.9967258E+004	3.9967258E+004	-8.9984726E+001	0.0000000E+000	0.0000000E+000	0.0000000E+000	8.9984726E+001	0.0000000E+000	0.0000000E+000	0.0000000E+000	-8.9984726E+001	0.0000000E+000	0.0000000E+000	0.0000000E+000	-1.5270584E-002	0.0000000E+000	0.0000000E+000	0.0000000E+000	1.5270584E-002	3.7520359E+003	8.9984726E+001
3.1622777E+004	1.0002992E-001	2.9912231E-005	1.0002992E-001	-1.7133320E-002	9.9970093E+000	2.9894339E-003	9.9970093E+000	1.7133320E-002	1.5047606E+001	5.0314156E+004	5.0314160E+004	-8.9982864E+001	0.0000000E+000	0.0000000E+000	0.0000000E+000	8.9982864E+001	0.0000000E+000	0.0000000E+000	0.0000000E+000	-8.9982864E+001	0.0000000E+000	0.0000000E+000	0.0000000E+000	-1.7133320E-002	0.0000000E+000	0.0000000E+000	0.0000000E+000	1.7133320E-002	3.3441143E+003	8.9982864E+001
2.5118865E+004	1.0003356E-001	3.3562075E-005	1.0003357E-001	-1.9223200E-002	9.9966431E+000	3.3539552E-003	9.9966440E+000	1.9223200E-002	2.1254082E+001	6.3339457E+004	6.3339461E+004	-8.9980774E+001	0.0000000E+000	0.0000000E+000	0.0000000E+000	8.9980774E+001	0.0000000E+000	0.0000000E+000	0.0000000E+000	-8.9980774E+001	0.0000000E+000	0.0000000E+000	0.0000000E+000	-1.9223200E-002	0.0000000E+000	0.0000000E+000	0.0000000E+000	1.9223200E-002	2.9805535E+003	8.9980774E+001
1.9952623E+004	1.0003766E-001	3.7657268E-005	1.0003766E-001	-2.1567902E-002	9.9962339E+000	3.7628915E-003	9.9962349E+000	2.1567902E-002	3.0015795E+001	7.9736391E+004	7.9736398E+004	-8.9978432E+001	0.0000000E+000	0.0000000E+000	0.0000000E+000	8.9978432E+001	0.0000000E+000	0.0000000E+000	0.0000000E+000	-8.9978432E+001	0.0000000E+000	0.0000000E+000	0.0000000E+000	-2.1567902E-002	0.0000000E+000	0.0000000E+000	0.0000000E+000	2.1567902E-002	2.6565298E+003	8.9978432E+001
1.5848932E+004	1.0004225E-001	4.2252148E-005	1.0004226E-001	-2.4198472E-002	9.9957743E+000	4.2216456E-003	9.9957752E+000	2.4198472E-002	4.2397209E+001	1.0037755E+005	1.0037756E+005	-8.9975800E+001	0.0000000E+000	0.0000000E+000	0.0000000E+000	8.9975800E+001	0.0000000E+000	0.0000000E+000	0.0000000E+000	-8.9975800E+001	0.0000000E+000	0.0000000E+000	0.0000000E+000	-2.4198472E-002	0.0000000E+000	0.0000000E+000	0.0000000E+000	2.4198472E-002	2.3677437E+003	8.9975800E+001
1.2589254E+004	1.0004741E-001	4.7407691E-005	1.0004742E-001	-2.7149733E-002	9.9952593E+000	4.7362763E-003	9.9952602E+000	2.7149733E-002	5.9883846E+001	1.2636134E+005	1.2636135E+005	-8.9972847E+001	0.0000000E+000	0.0000000E+000	0.0000000E+000	8.9972847E+001	0.0000000E+000	0.0000000E+000	0.0000000E+000	-8.9972847E+001	0.0000000E+000	0.0000000E+000	0.0000000E+000	-2.7149733E-002	0.0000000E+000	0.0000000E+000	0.0000000E+000	2.7149733E-002	2.1103623E+003	8.9972847E+001
1.0000000E+004	1.0005319E-001	5.3192303E-005	1.0005321E-001	-3.0460740E-002	9.9946814E+000	5.3135748E-003	9.9946823E+000	3.0460740E-002	8.4577690E+001	1.5907028E+005	1.5907030E+005	-8.9969536E+001	0.0000000E+000	0.0000000E+000	0.0000000E+000	8.9969536E+001	0.0000000E+000	0.0000000E+000	0.0000000E+000	-8.9969536E+001	0.0000000E+000	0.0000000E+000	0.0000000E+000	-3.0460740E-002	0.0000000E+000	0.0000000E+000	0.0000000E+000	3.0460740E-002	1.8809712E+003	8.9969536E+001
7.9432822E+003	1.0005968E-001	5.9682749E-005	1.0005970E-001	-3.4175295E-002	9.9940310E+000	5.9611546E-003	9.9940329E+000	3.4175295E-002	1.1942889E+002	2.0024463E+005	2.0024466E+005	-8.9965828E+001	0.0000000E+000	0.0000000E+000	0.0000000E+000	8.9965828E+001	0.0000000E+000	0.0000000E+000	0.0000000E+000	-8.9965828E+001	0.0000000E+000	0.0000000E+000	0.0000000E+000	-3.4175295E-002	0.0000000E+000	0.0000000E+000	0.0000000E+000	3.4175295E-002	1.6765260E+003	8.9965828E+001
6.3095732E+003	1.0006697E-001	6.6965142E-005	1.0006699E-001	-3.8342521E-002	9.9933033E+000	6.6875517E-003	9.9933052E+000	3.8342521E-002	1.6870160E+002	2.5207467E+005	2.5207473E+005	-8.9961655E+001	0.0000000E+000	0.0000000E+000	0.0000000E+000	8.9961655E+001	0.0000000E+000	0.0000000E+000	0.0000000E+000	-8.9961655E+001	0.0000000E+000	0.0000000E+000	0.0000000E+000	-3.8342521E-002	0.0000000E+000	0.0000000E+000	0.0000000E+000	3.8342521E-002	1.4943143E+003	8.9961655E+001
5.0118726E+003	1.0007513E-001	7.5136122E-005	1.0007516E-001	-4.3017499E-002	9.9924870E+000	7.5023305E-003	9.9924898E+000	4.3017499E-002	2.3822440E+002	3.1731722E+005	3.1731731E+005	-8.9956985E+001	0.0000000E+000	0.0000000E+000	0.0000000E+000	8.9956985E+001	0.0000000E+000	0.0000000E+000	0.0000000E+000	-8.9956985E+001	0.0000000E+000	0.0000000E+000	0.0000000E+000	-4.3017499E-002	0.0000000E+000	0.0000000E+000	0.0000000E+000	4.3017499E-002	1.3319177E+003	8.9956985E+001
3.9810718E+003	1.0008430E-001	8.4304120E-005	1.0008434E-001	-4.8262004E-002	9.9915695E+000	8.4162094E-003	9.9915733E+000	4.8262004E-002	3.3647324E+002	3.9944206E+005	3.9944222E+005	-8.9951736E+001	0.0000000E+000	0.0000000E+000	0.0000000E+000	8.9951736E+001	0.0000000E+000	0.0000000E+000	0.0000000E+000	-8.9951736E+001	0.0000000E+000	0.0000000E+000	0.0000000E+000	-4.8262004E-002	0.0000000E+000	0.0000000E+000	0.0000000E+000	4.8262004E-002	1.1871816E+003	8.9951736E+001
3.1622776E+003	1.0009459E-001	9.4590781E-005	1.0009464E-001	-5.4145291E-002	9.9905405E+000	9.4411997E-003	9.9905453E+000	5.4145291E-002	4.7517273E+002	5.0281606E+005	5.0281628E+005	-8.9945854E+001	0.0000000E+000	0.0000000E+000	0.0000000E+000	8.9945854E+001	0.0000000E+000	0.0000000E+000	0.0000000E+000	-8.9945854E+001	0.0000000E+000	0.0000000E+000	0.0000000E+000	-5.4145291E-002	0.0000000E+000	0.0000000E+000	0.0000000E+000	5.4145291E-002	1.0581855E+003	8.9945854E+001
2.5118865E+003	1.0010614E-001	1.0613260E-004	1.0010619E-001	-6.0745008E-002	9.9893866E+000	1.0590755E-002	9.9893923E+000	6.0745008E-002	6.7104053E+002	6.3293475E+005	6.3293513E+005	-8.9939255E+001	0.0000000E+000	0.0000000E+000	0.0000000E+000	8.9939255E+001	0.0000000E+000	0.0000000E+000	0.0000000E+000	-8.9939255E+001	0.0000000E+000	0.0000000E+000	0.0000000E+000	-6.0745008E-002	0.0000000E+000	0.0000000E+000	0.0000000E+000	6.0745008E-002	9.4321759E+002	8.9939255E+001
1.9952623E+003	1.0011908E-001	1.1908273E-004	1.0011915E-001	-6.8148196E-002	9.9880924E+000	1.1879946E-002	9.9880991E+000	6.8148196E-002	9.4758691E+002	7.9671444E+005	7.9671500E+005	-8.9931854E+001	0.0000000E+000	0.0000000E+000	0.0000000E+000	8.9931854E+001	0.0000000E+000	0.0000000E+000	0.0000000E+000	-8.9931854E+001	0.0000000E+000	0.0000000E+000	0.0000000E+000	-6.8148196E-002	0.0000000E+000	0.0000000E+000	0.0000000E+000	6.8148196E-002	8.4075232E+002	8.9931854E+001
1.5848932E+003	1.0013361E-001	1.3361302E-004	1.0013370E-001	-7.6452427E-002	9.9866390E+000	1.3325645E-002	9.9866476E+000	7.6452427E-002	1.3381914E+003	1.0028581E+006	1.0028590E+006	-8.9923546E+001	0.0000000E+000	0.0000000E+000	0.0000000E+000	8.9923546E+001	0.0000000E+000	0.0000000E+000	0.0000000E+000	-8.9923546E+001	0.0000000E+000	0.0000000E+000	0.0000000E+000	-7.6452427E-002	0.0000000E+000	0.0000000E+000	0.0000000E+000	7.6452427E-002	7.4943005E+002	8.9923546E+001
1.2589254E+003	1.0014991E-001	1.4991628E-004	1.0015003E-001	-8.5767061E-002	9.9850082E+000	1.4946746E-002	9.9850197E+000	8.5767061E-002	1.8896436E+003	1.2623174E+006	1.2623188E+006	-8.9914230E+001	0.0000000E+000	0.0000000E+000	0.0000000E+000	8.9914230E+001	0.0000000E+000	0.0000000E+000	0.0000000E+000	-8.9914230E+001	0.0000000E+000	0.0000000E+000	0.0000000E+000	-8.5767061E-002	0.0000000E+000	0.0000000E+000	0.0000000E+000	8.5767061E-002	6.6803900E+002	8.9914230E+001
1.0000000E+003	1.0016821E-001	1.6820883E-004	1.0016835E-001	-9.6214630E-002	9.9831791E+000	1.6764389E-002	9.9831934E+000	9.6214630E-002	2.6681265E+003	1.5888724E+006	1.5888746E+006	-8.9903786E+001	0.0000000E+000	0.0000000E+000	0.0000000E+000	8.9903786E+001	0.0000000E+000	0.0000000E+000	0.0000000E+000	-8.9903786E+001	0.0000000E+000	0.0000000E+000	0.0000000E+000	-9.6214630E-002	0.0000000E+000	0.0000000E+000	0.0000000E+000	9.6214630E-002	5.9549908E+002	8.9903786E+001
7.9432825E+002	1.0018873E-001	1.8873342E-004	1.0018891E-001	-1.0793245E-001	9.9811268E+000	1.8802237E-002	9.9811449E+000	1.0793245E-001	3.7673159E+003	1.9998606E+006	1.9998641E+006	-8.9892067E+001	0.0000000E+000	0.0000000E+000	0.0000000E+000	8.9892067E+001	0.0000000E+000	0.0000000E+000	0.0000000E+000	-8.9892067E+001	0.0000000E+000	0.0000000E+000	0.0000000E+000	-1.0793245E-001	0.0000000E+000	0.0000000E+000	0.0000000E+000	1.0793245E-001	5.3084784E+002	8.9892067E+001
6.3095734E+002	1.0021176E-001	2.1176238E-004	1.0021199E-001	-1.2107433E-001	9.9788246E+000	2.1086741E-002	9.9788465E+000	1.2107433E-001	5.3188428E+003	2.5170945E+006	2.5171000E+006	-8.9878929E+001	0.0000000E+000	0.0000000E+000	0.0000000E+000	8.9878929E+001	0.0000000E+000	0.0000000E+000	0.0000000E+000	-8.9878929E+001	0.0000000E+000	0.0000000E+000	0.0000000E+000	-1.2107433E-001	0.0000000E+000	0.0000000E+000	0.0000000E+000	1.2107433E-001	4.7322742E+002	8.9878929E+001
5.0118723E+002	1.0023760E-001	2.3760130E-004	1.0023788E-001	-1.3581257E-001	9.9762402E+000	2.3647487E-002	9.9762678E+000	1.3581257E-001	7.5093042E+003	3.1680135E+006	3.1680225E+006	-8.9864189E+001	0.0000000E+000	0.0000000E+000	0.0000000E+000	8.9864189E+001	0.0000000E+000	0.0000000E+000	0.0000000E+000	-8.9864189E+001	0.0000000E+000	0.0000000E+000	0.0000000E+000	-1.3581257E-001	0.0000000E+000	0.0000000E+000	0.0000000E+000	1.3581257E-001	4.2187311E+002	8.9864189E+001
3.9810718E+002	1.0026659E-001	2.6659304E-004	1.0026695E-001	-1.5234007E-001	9.9733410E+000	2.6517538E-002	9.9733763E+000	1.5234007E-001	1.0601414E+004	3.9871335E+006	3.9871475E+006	-8.9847656E+001	0.0000000E+000	0.0000000E+000	0.0000000E+000	8.9847656E+001	0.0000000E+000	0.0000000E+000	0.0000000E+000	-8.9847656E+001	0.0000000E+000	0.0000000E+000	0.0000000E+000	-1.5234007E-001	0.0000000E+000	0.0000000E+000	0.0000000E+000	1.5234007E-001	3.7610358E+002	8.9847656E+001
3.1622775E+002	1.0029912E-001	2.9912230E-004	1.0029957E-001	-1.7087284E-001	9.9700890E+000	2.9733820E-002	9.9701328E+000	1.7087284E-001	1.4965035E+004	5.0178670E+006	5.0178895E+006	-8.9829124E+001	0.0000000E+000	0.0000000E+000	0.0000000E+000	8.9829124E+001	0.0000000E+000	0.0000000E+000	0.0000000E+000	-8.9829124E+001	0.0000000E+000	0.0000000E+000	0.0000000E+000	-1.7087284E-001	0.0000000E+000	0.0000000E+000	0.0000000E+000	1.7087284E-001	3.3531140E+002	8.9829124E+001
2.5118864E+002	1.0033562E-001	3.3562075E-004	1.0033618E-001	-1.9165258E-001	9.9664392E+000	3.3337548E-002	9.9664946E+000	1.9165258E-001	2.1122672E+004	6.3148080E+006	6.3148435E+006	-8.9808350E+001	0.0000000E+000	0.0000000E+000	0.0000000E+000	8.9808350E+001	0.0000000E+000	0.0000000E+000	0.0000000E+000	-8.9808350E+001	0.0000000E+000	0.0000000E+000	0.0000000E+000	-1.9165258E-001	0.0000000E+000	0.0000000E+000	0.0000000E+000	1.9165258E-001	2.9895535E+002	8.9808350E+001
1.9952623E+002	1.0037658E-001	3.7657269E-004	1.0037728E-001	-2.1494980E-001	9.9623432E+000	3.7374724E-002	9.9624138E+000	2.1494980E-001	2.9812586E+004	7.9466055E+006	7.9466615E+006	-8.9785049E+001	0.0000000E+000	0.0000000E+000	0.0000000E+000	8.9785049E+001	0.0000000E+000	0.0000000E+000	0.0000000E+000	-8.9785049E+001	0.0000000E+000	0.0000000E+000	0.0000000E+000	-2.1494980E-001	0.0000000E+000	0.0000000E+000	0.0000000E+000	2.1494980E-001	2.6655298E+002	8.9785049E+001
1.5848932E+002	1.0042252E-001	4.2252149E-004	1.0042341E-001	-2.4106699E-001	9.9577494E+000	4.1896608E-002	9.9578371E+000	2.4106699E-001	4.2072387E+004	9.9995690E+006	9.9996580E+006	-8.9758934E+001	0.0000000E+000	0.0000000E+000	0.0000000E+000	8.9758934E+001	0.0000000E+000	0.0000000E+000	0.0000000E+000	-8.9758934E+001	0.0000000E+000	0.0000000E+000	0.0000000E+000	-2.4106699E-001	0.0000000E+000	0.0000000E+000	0.0000000E+000	2.4106699E-001	2.3767436E+002	8.9758934E+001
1.2589254E+002	1.0047407E-001	4.7407692E-004	1.0047519E-001	-2.7034241E-001	9.9525948E+000	4.6960324E-002	9.9527054E+000	2.7034241E-001	5.9367305E+004	1.2582197E+007	1.2582337E+007	-8.9729660E+001	0.0000000E+000	0.0000000E+000	0.0000000E+000	8.9729660E+001	0.0000000E+000	0.0000000E+000	0.0000000E+000	-8.9729660E+001	0.0000000E+000	0.0000000E+000	0.0000000E+000	-2.7034241E-001	0.0000000E+000	0.0000000E+000	0.0000000E+000	2.7034241E-001	2.1193623E+002	8.9729660E+001
1.0000000E+002	1.0053192E-001	5.3192303E-004	1.0053333E-001	-3.0315405E-001	9.9468107E+000	5.2629430E-002	9.9469500E+000	3.0315405E-001	8.3762320E+004	1.5830841E+007	1.5831063E+007	-8.9696846E+001	0.0000000E+000	0.0000000E+000	0.0000000E+000	8.9696846E+001	0.0000000E+000	0.0000000E+000	0.0000000E+000	-8.9696846E+001	0.0000000E+000	0.0000000E+000	0.0000000E+000	-3.0315405E-001	0.0000000E+000	0.0000000E+000	0.0000000E+000	3.0315405E-001	1.8899712E+002	8.9696846E+001
7.9432823E+001	1.0059683E-001	5.9682748E-004	1.0059860E-001	-3.3992419E-001	9.9403219E+000	5.8974594E-002	9.9404964E+000	3.3992419E-001	1.1816519E+005	1.9916846E+007	1.9917196E+007	-8.9660072E+001	0.0000000E+000	0.0000000E+000	0.0000000E+000	8.9660072E+001	0.0000000E+000	0.0000000E+000	0.0000000E+000	-8.9660072E+001	0.0000000E+000	0.0000000E+000	0.0000000E+000	-3.3992419E-001	0.0000000E+000	0.0000000E+000	0.0000000E+000	3.3992419E-001	1.6855261E+002	8.9660072E+001
6.3095734E+001	1.0066965E-001	6.6965143E-004	1.0067188E-001	-3.8112414E-001	9.9330406E+000	6.6074274E-002	9.9332600E+000	3.8112414E-001	1.6666914E+005	2.5055460E+007	2.5056014E+007	-8.9618874E+001	0.0000000E+000	0.0000000E+000	0.0000000E+000	8.9618874E+001	0.0000000E+000	0.0000000E+000	0.0000000E+000	-8.9618874E+001	0.0000000E+000	0.0000000E+000	0.0000000E+000	-3.8112414E-001	0.0000000E+000	0.0000000E+000	0.0000000E+000	3.8112414E-001	1.5033142E+002	8.9618874E+001
5.0118725E+001	1.0075136E-001	7.5136125E-004	1.0075416E-001	-4.2727989E-001	9.9248724E+000	7.4015521E-002	9.9251480E+000	4.2727989E-001	2.3503881E+005	3.1517014E+007	3.1517890E+007	-8.9572723E+001	0.0000000E+000	0.0000000E+000	0.0000000E+000	8.9572723E+001	0.0000000E+000	0.0000000E+000	0.0000000E+000	-8.9572723E+001	0.0000000E+000	0.0000000E+000	0.0000000E+000	-4.2727989E-001	0.0000000E+000	0.0000000E+000	0.0000000E+000	4.2727989E-001	1.3409177E+002	8.9572723E+001
3.9810719E+001	1.0084304E-001	8.4304117E-004	1.0084657E-001	-4.7897780E-001	9.9157076E+000	8.2894661E-002	9.9160538E+000	4.7897780E-001	3.3139781E+005	3.9640932E+007	3.9642316E+007	-8.9521019E+001	0.0000000E+000	0.0000000E+000	0.0000000E+000	8.9521019E+001	0.0000000E+000	0.0000000E+000	0.0000000E+000	-8.9521019E+001	0.0000000E+000	0.0000000E+000	0.0000000E+000	-4.7897780E-001	0.0000000E+000	0.0000000E+000	0.0000000E+000	4.7897780E-001	1.1961817E+002	8.9521019E+001
3.1622776E+001	1.0094590E-001	9.4590778E-004	1.0095034E-001	-5.3687108E-001	9.9054260E+000	9.2818223E-002	9.9058609E+000	5.3687108E-001	4.6714838E+005	4.9853232E+007	4.9855420E+007	-8.9463127E+001	0.0000000E+000	0.0000000E+000	0.0000000E+000	8.9463127E+001	0.0000000E+000	0.0000000E+000	0.0000000E+000	-8.9463127E+001	0.0000000E+000	0.0000000E+000	0.0000000E+000	-5.3687108E-001	0.0000000E+000	0.0000000E+000	0.0000000E+000	5.3687108E-001	1.0671854E+002	8.9463127E+001
2.5118864E+001	1.0106133E-001	1.0613260E-003	1.0106690E-001	-6.0168678E-001	9.8938904E+000	1.0390367E-001	9.8944359E+000	6.0168678E-001	6.5833875E+005	6.2688404E+007	6.2691860E+007	-8.9398315E+001	0.0000000E+000	0.0000000E+000	0.0000000E+000	8.9398315E+001	0.0000000E+000	0.0000000E+000	0.0000000E+000	-8.9398315E+001	0.0000000E+000	0.0000000E+000	0.0000000E+000	-6.0168678E-001	0.0000000E+000	0.0000000E+000	0.0000000E+000	6.0168678E-001	9.5221756E+001	8.9398315E+001
1.9952623E+001	1.0119083E-001	1.1908273E-003	1.0119783E-001	-6.7423338E-001	9.8809509E+000	1.1628036E-001	9.8816347E+000	6.7423338E-001	9.2752575E+005	7.8816816E+007	7.8822272E+007	-8.9325768E+001	0.0000000E+000	0.0000000E+000	0.0000000E+000	8.9325768E+001	0.0000000E+000	0.0000000E+000	0.0000000E+000	-8.9325768E+001	0.0000000E+000	0.0000000E+000	0.0000000E+000	-6.7423338E-001	0.0000000E+000	0.0000000E+000	0.0000000E+000	6.7423338E-001	8.4975227E+001	8.9325768E+001
1.5848932E+001	1.0133613E-001	1.3361302E-003	1.0134494E-001	-7.5540864E-001	9.8664341E+000	1.3009024E-001	9.8672915E+000	7.5540864E-001	1.3063669E+006	9.9078712E+007	9.9087320E+007	-8.9244591E+001	0.0000000E+000	0.0000000E+000	0.0000000E+000	8.9244591E+001	0.0000000E+000	0.0000000E+000	0.0000000E+000	-8.9244591E+001	0.0000000E+000	0.0000000E+000	0.0000000E+000	-7.5540864E-001	0.0000000E+000	0.0000000E+000	0.0000000E+000	7.5540864E-001	7.5843002E+001	8.9244591E+001
1.2589254E+001	1.0149916E-001	1.4991628E-003	1.0151023E-001	-8.4620851E-001	9.8501482E+000	1.4548865E-001	9.8512230E+000	8.4620851E-001	1.8392820E+006	1.2452683E+008	1.2454042E+008	-8.9153793E+001	0.0000000E+000	0.0000000E+000	0.0000000E+000	8.9153793E+001	0.0000000E+000	0.0000000E+000	0.0000000E+000	-8.9153793E+001	0.0000000E+000	0.0000000E+000	0.0000000E+000	-8.4620851E-001	0.0000000E+000	0.0000000E+000	0.0000000E+000	8.4620851E-001	6.7703896E+001	8.9153793E+001
1.0000000E+001	1.0168209E-001	1.6820884E-003	1.0169600E-001	-9.4773597E-001	9.8318825E+000	1.6264512E-001	9.8332281E+000	9.4773597E-001	2.5885850E+006	1.5647930E+008	1.5650070E+008	-8.9052261E+001	0.0000000E+000	0.0000000E+000	0.0000000E+000	8.9052261E+001	0.0000000E+000	0.0000000E+000	0.0000000E+000	-8.9052261E+001	0.0000000E+000	0.0000000E+000	0.0000000E+000	-9.4773597E-001	0.0000000E+000	0.0000000E+000	0.0000000E+000	9.4773597E-001	6.0449909E+001	8.9052261E+001
7.9432821E+000	1.0188734E-001	1.8873342E-003	1.0190481E-001	-1.0612106E+000	9.8113966E+000	1.8174374E-001	9.8130798E+000	1.0612106E+000	3.6414943E+006	1.9658528E+008	1.9661901E+008	-8.8938789E+001	0.0000000E+000	0.0000000E+000	0.0000000E+000	8.8938789E+001	0.0000000E+000	0.0000000E+000	0.0000000E+000	-8.8938789E+001	0.0000000E+000	0.0000000E+000	0.0000000E+000	-1.0612106E+000	0.0000000E+000	0.0000000E+000	0.0000000E+000	1.0612106E+000	5.3984791E+001	8.8938789E+001
6.3095737E+000	1.0211762E-001	2.1176238E-003	1.0213958E-001	-1.1879783E+000	9.7884197E+000	2.0298348E-001	9.7905245E+000	1.1879783E+000	5.1201380E+006	2.4690659E+008	2.4695968E+008	-8.8812019E+001	0.0000000E+000	0.0000000E+000	0.0000000E+000	8.8812019E+001	0.0000000E+000	0.0000000E+000	0.0000000E+000	-8.8812019E+001	0.0000000E+000	0.0000000E+000	0.0000000E+000	-1.1879783E+000	0.0000000E+000	0.0000000E+000	0.0000000E+000	1.1879783E+000	4.8222740E+001	8.8812019E+001
5.0118723E+000	1.0237601E-001	2.3760132E-003	1.0240358E-001	-1.3295214E+000	9.7626543E+000	2.2657844E-001	9.7652836E+000	1.3295214E+000	7.1951300E+006	3.1001882E+008	3.1010230E+008	-8.8670479E+001	0.0000000E+000	0.0000000E+000	0.0000000E+000	8.8670479E+001	0.0000000E+000	0.0000000E+000	0.0000000E+000	-8.8670479E+001	0.0000000E+000	0.0000000E+000	0.0000000E+000	-1.3295214E+000	0.0000000E+000	0.0000000E+000	0.0000000E+000	1.3295214E+000	4.3087307E+001	8.8670479E+001
3.9810717E+000	1.0266593E-001	2.6659307E-003	1.0270054E-001	-1.4874676E+000	9.7337656E+000	2.5275710E-001	9.7370472E+000	1.4874676E+000	1.0104684E+007	3.8913568E+008	3.8926685E+008	-8.8512535E+001	0.0000000E+000	0.0000000E+000	0.0000000E+000	8.8512535E+001	0.0000000E+000	0.0000000E+000	0.0000000E+000	-8.8512535E+001	0.0000000E+000	0.0000000E+000	0.0000000E+000	-1.4874676E+000	0.0000000E+000	0.0000000E+000	0.0000000E+000	1.4874676E+000	3.8510353E+001	8.8512535E+001
3.1622777E+000	1.0299122E-001	2.9912100E-003	1.0303465E-001	-1.6635935E+000	9.7013826E+000	2.8176060E-001	9.7054729E+000	1.6635935E+000	1.4180819E+007	4.8826288E+008	4.8846877E+008	-8.8336403E+001	0.0000000E+000	0.0000000E+000	0.0000000E+000	8.8336403E+001	0.0000000E+000	0.0000000E+000	0.0000000E+000	-8.8336403E+001	0.0000000E+000	0.0000000E+000	0.0000000E+000	-1.6635935E+000	0.0000000E+000	0.0000000E+000	0.0000000E+000	1.6635935E+000	3.4431293E+001	8.8336403E+001
2.5118864E+000	1.0335615E-001	3.3561988E-003	1.0341062E-001	-1.8598651E+000	9.6650915E+000	3.1384656E-001	9.6701860E+000	1.8598651E+000	1.9885526E+007	6.1238726E+008	6.1271002E+008	-8.8140137E+001	0.0000000E+000	0.0000000E+000	0.0000000E+000	8.8140137E+001	0.0000000E+000	0.0000000E+000	0.0000000E+000	-8.8140137E+001	0.0000000E+000	0.0000000E+000	0.0000000E+000	-1.8598651E+000	0.0000000E+000	0.0000000E+000	0.0000000E+000	1.8598651E+000	3.0795597E+001	8.8140137E+001
1.9952623E+000	1.0376562E-001	3.7659646E-003	1.0383394E-001	-2.0785229E+000	9.6244268E+000	3.4929922E-001	9.6307631E+000	2.0785229E+000	2.7862334E+007	7.6770611E+008	7.6821152E+008	-8.7921478E+001	0.0000000E+000	0.0000000E+000	0.0000000E+000	8.7921478E+001	0.0000000E+000	0.0000000E+000	0.0000000E+000	-8.7921478E+001	0.0000000E+000	0.0000000E+000	0.0000000E+000	-2.0785229E+000	0.0000000E+000	0.0000000E+000	0.0000000E+000	2.0785229E+000	2.7553530E+001	8.7921478E+001
1.5848932E+000	1.0422584E-001	4.2258957E-003	1.0431147E-001	-2.3218181E+000	9.5788021E+000	3.8837796E-001	9.5866728E+000	2.3218181E+000	3.9000864E+007	9.6190317E+008	9.6269350E+008	-8.7678185E+001	0.0000000E+000	0.0000000E+000	0.0000000E+000	8.7678185E+001	0.0000000E+000	0.0000000E+000	0.0000000E+000	-8.7678185E+001	0.0000000E+000	0.0000000E+000	0.0000000E+000	-2.3218181E+000	0.0000000E+000	0.0000000E+000	0.0000000E+000	2.3218181E+000	2.4663610E+001	8.7678185E+001
1.2589254E+000	1.0474361E-001	4.7401860E-003	1.0485082E-001	-2.5911601E+000	9.5276089E+000	4.3117318E-001	9.5373602E+000	2.5911601E+000	5.4509532E+007	1.2044923E+009	1.2057251E+009	-8.7408836E+001	0.0000000E+000	0.0000000E+000	0.0000000E+000	8.7408836E+001	0.0000000E+000	0.0000000E+000	0.0000000E+000	-8.7408836E+001	0.0000000E+000	0.0000000E+000	0.0000000E+000	-2.5911601E+000	0.0000000E+000	0.0000000E+000	0.0000000E+000	2.5911601E+000	2.2096941E+001	8.7408836E+001
1.0000000E+000	1.0532279E-001	5.3118891E-003	1.0545665E-001	-2.8872306E+000	9.4705324E+000	4.7764042E-001	9.4825697E+000	2.8872306E+000	7.6018816E+007	1.5072820E+009	1.5091978E+009	-8.7112770E+001	0.0000000E+000	0.0000000E+000	0.0000000E+000	8.7112770E+001	0.0000000E+000	0.0000000E+000	0.0000000E+000	-8.7112770E+001	0.0000000E+000	0.0000000E+000	0.0000000E+000	-2.8872306E+000	0.0000000E+000	0.0000000E+000	0.0000000E+000	2.8872306E+000	1.9827745E+001	8.7112770E+001
7.9432821E-001	1.0596085E-001	5.9489422E-003	1.0612771E-001	-3.2133741E+000	9.4077950E+000	5.2818030E-001	9.4226103E+000	3.2133741E+000	1.0582833E+008	1.8849853E+009	1.8879538E+009	-8.6786629E+001	0.0000000E+000	0.0000000E+000	0.0000000E+000	8.6786629E+001	0.0000000E+000	0.0000000E+000	0.0000000E+000	-8.6786629E+001	0.0000000E+000	0.0000000E+000	0.0000000E+000	-3.2133741E+000	0.0000000E+000	0.0000000E+000	0.0000000E+000	3.2133741E+000	1.7811712E+001	8.6786629E+001
6.3095737E-001	1.0665376E-001	6.6744606E-003	1.0686240E-001	-3.5809367E+000	9.3395576E+000	5.8447546E-001	9.3578281E+000	3.5809367E+000	1.4743032E+008	2.3558433E+009	2.3604518E+009	-8.6419060E+001	0.0000000E+000	0.0000000E+000	0.0000000E+000	8.6419060E+001	0.0000000E+000	0.0000000E+000	0.0000000E+000	-8.6419060E+001	0.0000000E+000	0.0000000E+000	0.0000000E+000	-3.5809367E+000	0.0000000E+000	0.0000000E+000	0.0000000E+000	3.5809367E+000	1.5979383E+001	8.6419060E+001
5.0118721E-001	1.0741179E-001	7.5311046E-003	1.0767549E-001	-4.0106907E+000	9.2644205E+000	6.4956850E-001	9.2871647E+000	4.0106907E+000	2.0627418E+008	2.9419709E+009	2.9491935E+009	-8.5989311E+001	0.0000000E+000	0.0000000E+000	0.0000000E+000	8.5989311E+001	0.0000000E+000	0.0000000E+000	0.0000000E+000	-8.5989311E+001	0.0000000E+000	0.0000000E+000	0.0000000E+000	-4.0106907E+000	0.0000000E+000	0.0000000E+000	0.0000000E+000	4.0106907E+000	1.4262423E+001	8.5989311E+001
3.9810717E-001	1.0827792E-001	8.5708750E-003	1.0861661E-001	-4.5258827E+000	9.1779861E+000	7.2649509E-001	9.2066946E+000	4.5258827E+000	2.9043734E+008	3.6691679E+009	3.6806449E+009	-8.5474121E+001	0.0000000E+000	0.0000000E+000	0.0000000E+000	8.5474121E+001	0.0000000E+000	0.0000000E+000	0.0000000E+000	-8.5474121E+001	0.0000000E+000	0.0000000E+000	0.0000000E+000	-4.5258827E+000	0.0000000E+000	0.0000000E+000	0.0000000E+000	4.5258827E+000	1.2633241E+001	8.5474121E+001
3.1622776E-001	1.0933758E-001	9.8322555E-003	1.0977878E-001	-5.1385398E+000	9.0726185E+000	8.1586128E-001	9.1092281E+000	5.1385398E+000	4.1061674E+008	4.5661773E+009	4.5846026E+009	-8.4861458E+001	0.0000000E+000	0.0000000E+000	0.0000000E+000	8.4861458E+001	0.0000000E+000	0.0000000E+000	0.0000000E+000	-8.4861458E+001	0.0000000E+000	0.0000000E+000	0.0000000E+000	-5.1385398E+000	0.0000000E+000	0.0000000E+000	0.0000000E+000	5.1385398E+000	1.1120296E+001	8.4861458E+001
2.5118864E-001	1.1071478E-001	1.1311824E-002	1.1129115E-001	-5.8337159E+000	8.9389057E+000	9.1329563E-001	8.9854403E+000	5.8337159E+000	5.7867091E+008	5.6637553E+009	5.6932403E+009	-8.4166283E+001	0.0000000E+000	0.0000000E+000	0.0000000E+000	8.4166283E+001	0.0000000E+000	0.0000000E+000	0.0000000E+000	-8.4166283E+001	0.0000000E+000	0.0000000E+000	0.0000000E+000	-5.8337159E+000	0.0000000E+000	0.0000000E+000	0.0000000E+000	5.8337159E+000	9.7875271E+000	8.4166283E+001
1.9952624E-001	1.1255241E-001	1.2935195E-002	1.1329327E-001	-6.5560098E+000	8.7689295E+000	1.0077777E+000	8.8266497E+000	6.5560098E+000	8.0386803E+008	6.9946624E+009	7.0407035E+009	-8.3443993E+001	0.0000000E+000	0.0000000E+000	0.0000000E+000	8.3443993E+001	0.0000000E+000	0.0000000E+000	0.0000000E+000	-8.3443993E+001	0.0000000E+000	0.0000000E+000	0.0000000E+000	-6.5560098E+000	0.0000000E+000	0.0000000E+000	0.0000000E+000	6.5560098E+000	8.7012539E+000	8.3443993E+001
1.5848932E-001	1.1497121E-001	1.4534513E-002	1.1588628E-001	-7.2050385E+000	8.5610113E+000	1.0822721E+000	8.6291494E+000	7.2050385E+000	1.0868175E+009	8.5969654E+009	8.6653901E+009	-8.2794960E+001	0.0000000E+000	0.0000000E+000	0.0000000E+000	8.2794960E+001	0.0000000E+000	0.0000000E+000	0.0000000E+000	-8.2794960E+001	0.0000000E+000	0.0000000E+000	0.0000000E+000	-7.2050385E+000	0.0000000E+000	0.0000000E+000	0.0000000E+000	7.2050385E+000	7.9102211E+000	8.2794960E+001
1.2589253E-001	1.1800483E-001	1.5852408E-002	1.1906485E-001	-7.6511345E+000	8.3240108E+000	1.1182222E+000	8.3987846E+000	7.6511345E+000	1.4136714E+009	1.0523320E+010	1.0617850E+010	-8.2348862E+001	0.0000000E+000	0.0000000E+000	0.0000000E+000	8.2348862E+001	0.0000000E+000	0.0000000E+000	0.0000000E+000	-8.2348862E+001	0.0000000E+000	0.0000000E+000	0.0000000E+000	-7.6511345E+000	0.0000000E+000	0.0000000E+000	0.0000000E+000	7.6511345E+000	7.4439683E+000	8.2348862E+001
1.0000000E-001	1.2153344E-001	1.6600063E-002	1.2266189E-001	-7.7778106E+000	8.0774918E+000	1.1032919E+000	8.1524916E+000	7.7778106E+000	1.7559433E+009	1.2855727E+010	1.2975094E+010	-8.2222191E+001	0.0000000E+000	0.0000000E+000	0.0000000E+000	8.2222191E+001	0.0000000E+000	0.0000000E+000	0.0000000E+000	-8.2222191E+001	0.0000000E+000	0.0000000E+000	0.0000000E+000	-7.7778106E+000	0.0000000E+000	0.0000000E+000	0.0000000E+000	7.7778106E+000	7.3212638E+000	8.2222191E+001
7.9432823E-002	1.2527038E-001	1.6569374E-002	1.2636144E-001	-7.5347114E+000	7.8454757E+000	1.0377122E+000	7.9138064E+000	7.5347114E+000	2.0792045E+009	1.5719524E+010	1.5856435E+010	-8.2465286E+001	0.0000000E+000	0.0000000E+000	0.0000000E+000	8.2465286E+001	0.0000000E+000	0.0000000E+000	0.0000000E+000	-8.2465286E+001	0.0000000E+000	0.0000000E+000	0.0000000E+000	-7.5347114E+000	0.0000000E+000	0.0000000E+000	0.0000000E+000	7.5347114E+000	7.5603571E+000	8.2465286E+001
6.3095734E-002	1.2884490E-001	1.5736870E-002	1.2980239E-001	-6.9635067E+000	7.6471901E+000	9.3401313E-001	7.7040181E+000	6.9635067E+000	2.3559890E+009	1.9289547E+010	1.9432892E+010	-8.3036491E+001	0.0000000E+000	0.0000000E+000	0.0000000E+000	8.3036491E+001	0.0000000E+000	0.0000000E+000	0.0000000E+000	-8.3036491E+001	0.0000000E+000	0.0000000E+000	0.0000000E+000	-6.9635067E+000	0.0000000E+000	0.0000000E+000	0.0000000E+000	6.9635067E+000	8.1874542E+000	8.3036491E+001
5.0118722E-002	1.3194273E-001	1.4274786E-002	1.3271268E-001	-6.1747704E+000	7.4913597E+000	8.1048459E-001	7.5350752E+000	6.1747704E+000	2.5737428E+009	2.3789251E+010	2.3928072E+010	-8.3825226E+001	0.0000000E+000	0.0000000E+000	0.0000000E+000	8.3825226E+001	0.0000000E+000	0.0000000E+000	0.0000000E+000	-8.3825226E+001	0.0000000E+000	0.0000000E+000	0.0000000E+000	-6.1747704E+000	0.0000000E+000	0.0000000E+000	0.0000000E+000	6.1747704E+000	9.2430620E+000	8.3825226E+001
3.9810717E-002	1.3440496E-001	1.2459810E-002	1.3498126E-001	-5.2963815E+000	7.3768058E+000	6.8385571E-001	7.4084358E+000	5.2963815E+000	2.7339113E+009	2.9490932E+010	2.9617381E+010	-8.4703621E+001	0.0000000E+000	0.0000000E+000	0.0000000E+000	8.4703621E+001	0.0000000E+000	0.0000000E+000	0.0000000E+000	-8.4703621E+001	0.0000000E+000	0.0000000E+000	0.0000000E+000	-5.2963815E+000	0.0000000E+000	0.0000000E+000	0.0000000E+000	5.2963815E+000	1.0787079E+001	8.4703621E+001
3.1622775E-002	1.3623051E-001	1.0557545E-002	1.3663900E-001	-4.4314313E+000	7.2966762E+000	5.6547529E-001	7.3185549E+000	4.4314313E+000	2.8459953E+009	3.6723601E+010	3.6833714E+010	-8.5568565E+001	0.0000000E+000	0.0000000E+000	0.0000000E+000	8.5568565E+001	0.0000000E+000	0.0000000E+000	0.0000000E+000	-8.5568565E+001	0.0000000E+000	0.0000000E+000	0.0000000E+000	-4.4314313E+000	0.0000000E+000	0.0000000E+000	0.0000000E+000	4.4314313E+000	1.2903616E+001	8.5568565E+001
2.5118865E-002	1.3751535E-001	8.7554026E-003	1.3779379E-001	-3.6430218E+000	7.2425561E+000	4.6112302E-001	7.2572207E+000	3.6430218E+000	2.9217078E+009	4.5889356E+010	4.5982274E+010	-8.6356979E+001	0.0000000E+000	0.0000000E+000	0.0000000E+000	8.6356979E+001	0.0000000E+000	0.0000000E+000	0.0000000E+000	-8.6356979E+001	0.0000000E+000	0.0000000E+000	0.0000000E+000	-3.6430218E+000	0.0000000E+000	0.0000000E+000	0.0000000E+000	3.6430218E+000	1.5706343E+001	8.6356979E+001
1.9952623E-002	1.3838680E-001	7.1536214E-003	1.3857158E-001	-2.9591537E+000	7.2068648E+000	3.7254408E-001	7.2164874E+000	2.9591537E+000	2.9716493E+009	5.7486582E+010	5.7563337E+010	-8.7040848E+001	0.0000000E+000	0.0000000E+000	0.0000000E+000	8.7040848E+001	0.0000000E+000	0.0000000E+000	0.0000000E+000	-8.7040848E+001	0.0000000E+000	0.0000000E+000	0.0000000E+000	-2.9591537E+000	0.0000000E+000	0.0000000E+000	0.0000000E+000	2.9591537E+000	1.9344999E+001	8.7040848E+001
1.5848933E-002	1.3896316E-001	5.7868524E-003	1.3908361E-001	-2.3845942E+000	7.1836939E+000	2.9915103E-001	7.1899199E+000	2.3845942E+000	3.0040786E+009	7.2138637E+010	7.2201159E+010	-8.7615402E+001	0.0000000E+000	0.0000000E+000	0.0000000E+000	8.7615402E+001	0.0000000E+000	0.0000000E+000	0.0000000E+000	-8.7615402E+001	0.0000000E+000	0.0000000E+000	0.0000000E+000	-2.3845942E+000	0.0000000E+000	0.0000000E+000	0.0000000E+000	2.3845942E+000	2.4013601E+001	8.7615402E+001
1.2589254E-002	1.3933802E-001	4.6506627E-003	1.3941561E-001	-1.9116426E+000	7.1688061E+000	2.3927212E-001	7.1727982E+000	1.9116426E+000	3.0249106E+009	9.0628948E+010	9.0679419E+010	-8.8088356E+001	0.0000000E+000	0.0000000E+000	0.0000000E+000	8.8088356E+001	0.0000000E+000	0.0000000E+000	0.0000000E+000	-8.8088356E+001	0.0000000E+000	0.0000000E+000	0.0000000E+000	-1.9116426E+000	0.0000000E+000	0.0000000E+000	0.0000000E+000	1.9116426E+000	2.9960896E+001	8.8088356E+001
9.9999998E-003	1.3957915E-001	3.7217485E-003	1.3962877E-001	-1.5273769E+000	7.1593037E+000	1.9089618E-001	7.1618481E+000	1.5273769E+000	3.0382019E+009	1.1394385E+011	1.1398435E+011	-8.8472626E+001	0.0000000E+000	0.0000000E+000	0.0000000E+000	8.8472626E+001	0.0000000E+000	0.0000000E+000	0.0000000E+000	-8.8472626E+001	0.0000000E+000	0.0000000E+000	0.0000000E+000	-1.5273769E+000	0.0000000E+000	0.0000000E+000	0.0000000E+000	1.5273769E+000	3.7503647E+001	8.8472626E+001