EC-Lab ASCII FILE
Nb header lines : 63                          

Potentio Electrochemical Impedance Spectroscopy

Run on channel : 3 (SN 50730)
User : 
CE vs. WE compliance from -10 V to 10 V
Electrode connection : standard
Potential control : Ewe
Ewe ctrl range : min = -10.00 V, max = 10.00 V
Safety Limits :
	Do not start on E overload
Acquisition started on : 02/14/2023 14:26:00.376
Loaded Setting File :  C:\Users\sto063\Documents\EC-Lab\Data\Baichen\Micormolding\20230214_denseNoPatternS4_IDFF\NoPattern_IDFF_05Fe_2MHCL_ve10cms_EIS_PCGA.mps
Saved on :
	File : NoPattern_IDFF_05Fe_2MHCL_ve2cms_EIS_PCGA_01_PEIS_C03.mpr
	Directory : C:\Users\sto063\Documents\EC-Lab\Data\Baichen\Micormolding\20230214_denseNoPatternS4_IDFF\
	Host : 131.155.90.158
Device : VSP-3e (SN .003050)
Address : USB
EC-Lab for windows v11.43 (software)
Internet server v11.40 (firmware)
Command interpretor v11.40 (firmware)
Electrode material : 
Initial state : 
Electrolyte : 
Comments : 
Electrode surface area : 0.001 cm2
Characteristic mass : 0.001 g
Equivalent Weight : 0.000 g/eq.
Density : 0.000 g/cm3
Volume (V) : 0.001 cm3
Cycle Definition : Charge/Discharge alternance
Mode                Single sine         
E (V)               0.0000              
vs.                 Eoc                 
tE (h:m:s)          0:00:0.0000         
record              0                   
dI                  0.000               
unit dI             mA                  
dt (s)              0.000               
fi                  200.000             
unit fi             kHz                 
ff                  20.000              
unit ff             mHz                 
Nd                  8                   
Points              per decade          
spacing             Logarithmic         
Va (mV)             10.0                
pw                  0.10                
Na                  5                   
corr                0                   
E range min (V)     -10.000             
E range max (V)     10.000              
I Range             Auto                
Bandwidth           5                   
nc cycles           0                   
goto Ns'            0                   
nr cycles           0                   
inc. cycle          0                   

freq/Hz	Re(Z)/Ohm	-Im(Z)/Ohm	|Z|/Ohm	Phase(Z)/deg	time/s	<Ewe>/V	<I>/mA	Cs/uF	Cp/uF	cycle number	I Range	|Ewe|/V	|I|/A	Ns	(Q-Qo)/mA.h	Re(Y)/Ohm-1	Im(Y)/Ohm-1	|Y|/Ohm-1	Phase(Y)/deg	Re(C)/nF	Im(C)/nF	|C|/nF	Phase(C)/deg	Re(M)	Im(M)	|M|	Phase(M)/deg	Re(Permittivity)	Im(Permittivity)	|Permittivity|	Phase(Permittivity)/deg	Re(Resistivity)/Ohm.cm	Im(Resistivity)/Ohm.cm	|Resistivity|/Ohm.cm	Phase(Resistivity)/deg	Re(Conductivity)/mS/cm	Im(Conductivity)/mS/cm	|Conductivity|/mS/cm	Phase(Conductivity)/deg	Tan(Delta)	Loss Angle(Delta)/deg	dq/mA.h	
1.9999814E+005	1.8811324E-001	-7.5181380E-002	2.0258044E-001	2.1784626E+001	1.738484349189093E+000	-3.7790989E-004	-1.3534653E+000	-1.0584830E+001	-1.4578387E+000	1.000000000000000E+000	9	8.2750170E-004	4.0848055E-003	0	-5.139516449252454E-004	4.5837865E+000	-1.8319571E+000	4.9363108E+000	-2.1784626E+001	-1.4578385E+003	3.6476953E+003	3.9282278E+003	-1.1178462E+002	0.0000000E+000	0.0000000E+000	0.0000000E+000	1.1178462E+002	0.0000000E+000	0.0000000E+000	0.0000000E+000	-1.1178462E+002	0.0000000E+000	0.0000000E+000	0.0000000E+000	2.1784626E+001	0.0000000E+000	0.0000000E+000	0.0000000E+000	-2.1784626E+001	-2.5021255E+000	-2.1784626E+001	-5.139516449252454E-004
1.4919834E+005	1.9626048E-001	-5.3661726E-002	2.0346439E-001	1.5292106E+001	2.562485961680068E+000	-3.9595252E-004	-1.3289031E+000	-1.9878860E+001	-1.3827510E+000	1.000000000000000E+000	9	1.7596732E-003	8.6485567E-003	0	-8.302202060640945E-004	4.7408481E+000	-1.2962472E+000	4.9148650E+000	-1.5292106E+001	-1.3827511E+003	5.0572236E+003	5.2428535E+003	-1.0529211E+002	0.0000000E+000	0.0000000E+000	0.0000000E+000	1.0529211E+002	0.0000000E+000	0.0000000E+000	0.0000000E+000	-1.0529211E+002	0.0000000E+000	0.0000000E+000	0.0000000E+000	1.5292106E+001	0.0000000E+000	0.0000000E+000	0.0000000E+000	-1.5292106E+001	-3.6573644E+000	-1.5292106E+001	-3.162685611388491E-004
1.1129565E+005	1.9985342E-001	-3.8336325E-002	2.0349708E-001	1.0858701E+001	3.386496800841996E+000	-4.2980106E-004	-1.4224769E+000	-3.7301945E+001	-1.3238417E+000	1.000000000000000E+000	9	4.6151001E-003	2.2678949E-002	0	-1.121820805821413E-003	4.8260875E+000	-9.2575079E-001	4.9140754E+000	-1.0858701E+001	-1.3238419E+003	6.9013989E+003	7.0272231E+003	-1.0085870E+002	0.0000000E+000	0.0000000E+000	0.0000000E+000	1.0085870E+002	0.0000000E+000	0.0000000E+000	0.0000000E+000	-1.0085870E+002	0.0000000E+000	0.0000000E+000	0.0000000E+000	1.0858701E+001	0.0000000E+000	0.0000000E+000	0.0000000E+000	-1.0858701E+001	-5.2131605E+000	-1.0858701E+001	-2.916005997573181E-004
8.3024047E+004	2.0118907E-001	-2.6725911E-002	2.0295644E-001	7.5668569E+000	4.347498419781914E+000	-4.4497289E-004	-1.4898853E+000	-7.1727173E+001	-1.2437786E+000	1.000000000000000E+000	9	2.2531223E-002	1.1101507E-001	0	-1.587384489922888E-003	4.8842592E+000	-6.4882392E-001	4.9271655E+000	-7.5668569E+000	-1.2437786E+003	9.3629990E+003	9.4452490E+003	-9.7566856E+001	0.0000000E+000	0.0000000E+000	0.0000000E+000	9.7566856E+001	0.0000000E+000	0.0000000E+000	0.0000000E+000	-9.7566856E+001	0.0000000E+000	0.0000000E+000	0.0000000E+000	7.5668569E+000	0.0000000E+000	0.0000000E+000	0.0000000E+000	-7.5668569E+000	-7.5278659E+000	-7.5668569E+000	-4.655636841014751E-004
6.1934008E+004	2.0213455E-001	-1.8571120E-002	2.0298587E-001	5.2493148E+000	6.404480144177796E+000	-3.6726671E-004	-1.2018456E+000	-1.3837347E+002	-1.1582370E+000	1.000000000000000E+000	9	1.1607823E-002	5.7185374E-002	0	-2.785893926793296E-003	4.9057899E+000	-4.5071959E-001	4.9264512E+000	-5.2493148E+000	-1.1582366E+003	1.2606656E+004	1.2659751E+004	-9.5249313E+001	0.0000000E+000	0.0000000E+000	0.0000000E+000	9.5249313E+001	0.0000000E+000	0.0000000E+000	0.0000000E+000	-9.5249313E+001	0.0000000E+000	0.0000000E+000	0.0000000E+000	5.2493148E+000	0.0000000E+000	0.0000000E+000	0.0000000E+000	-5.2493148E+000	-1.0884349E+001	-5.2493148E+000	-1.198509436870408E-003
4.6206945E+004	2.0313187E-001	-1.2322539E-002	2.0350529E-001	3.4714658E+000	7.502476463007042E+000	-3.2456455E-004	-1.0391294E+000	-2.7951984E+002	-1.0248532E+000	1.000000000000000E+000	9	9.4451746E-003	4.6412427E-002	0	-2.849553750676103E-003	4.9048605E+000	-2.9754236E-001	4.9138770E+000	-3.4714658E+000	-1.0248533E+003	1.6894273E+004	1.6925330E+004	-9.3471466E+001	0.0000000E+000	0.0000000E+000	0.0000000E+000	9.3471466E+001	0.0000000E+000	0.0000000E+000	0.0000000E+000	-9.3471466E+001	0.0000000E+000	0.0000000E+000	0.0000000E+000	3.4714658E+000	0.0000000E+000	0.0000000E+000	0.0000000E+000	-3.4714658E+000	-1.6484579E+001	-3.4714658E+000	-6.365982388280723E-005
3.4469641E+004	2.0432597E-001	-7.5213667E-003	2.0446436E-001	2.1081414E+000	8.326481142110424E+000	-3.1464855E-004	-9.9194193E-001	-6.1388440E+002	-8.3070129E-001	1.000000000000000E+000	9	9.3491366E-003	4.5725018E-002	0	-3.008448202227449E-003	4.8875175E+000	-1.7991255E-001	4.8908277E+000	-2.1081414E+000	-8.3070038E+002	2.2566893E+004	2.2582176E+004	-9.2108139E+001	0.0000000E+000	0.0000000E+000	0.0000000E+000	9.2108139E+001	0.0000000E+000	0.0000000E+000	0.0000000E+000	-9.2108139E+001	0.0000000E+000	0.0000000E+000	0.0000000E+000	2.1081414E+000	0.0000000E+000	0.0000000E+000	0.0000000E+000	-2.1081414E+000	-2.7166069E+001	-2.1081414E+000	-1.588944515513464E-004
2.5710734E+004	2.0561427E-001	-3.9641233E-003	2.0565248E-001	1.1044925E+000	9.150479421281489E+000	-2.9681090E-004	-9.5494050E-001	-1.5615593E+003	-5.8020961E-001	1.000000000000000E+000	9	9.9790636E-003	4.8523918E-002	0	-3.165342937833423E-003	4.8616686E+000	-9.3730152E-002	4.8625722E+000	-1.1044925E+000	-5.8020947E+002	3.0094770E+004	3.0100361E+004	-9.1104492E+001	0.0000000E+000	0.0000000E+000	0.0000000E+000	9.1104492E+001	0.0000000E+000	0.0000000E+000	0.0000000E+000	-9.1104492E+001	0.0000000E+000	0.0000000E+000	0.0000000E+000	1.1044925E+000	0.0000000E+000	0.0000000E+000	0.0000000E+000	-1.1044925E+000	-5.1868786E+001	-1.1044925E+000	-1.568947356059736E-004
1.9178668E+004	2.0673616E-001	-1.4241639E-003	2.0674106E-001	3.9469290E-001	9.974473407055484E+000	-3.0242125E-004	-9.6192360E-001	-5.8269556E+003	-2.7650830E-001	1.000000000000000E+000	9	1.0305822E-002	4.9848936E-002	0	-3.498788681192117E-003	4.8368535E+000	-3.3320114E-002	4.8369684E+000	-3.9469290E-001	-2.7650732E+002	4.0138824E+004	4.0139777E+004	-9.0394691E+001	0.0000000E+000	0.0000000E+000	0.0000000E+000	9.0394691E+001	0.0000000E+000	0.0000000E+000	0.0000000E+000	-9.0394691E+001	0.0000000E+000	0.0000000E+000	0.0000000E+000	3.9469290E-001	0.0000000E+000	0.0000000E+000	0.0000000E+000	-3.9469290E-001	-1.4516318E+002	-3.9469290E-001	-3.334457433586940E-004
1.4307455E+004	2.0811467E-001	3.9293361E-004	2.0811504E-001	-1.0817791E-001	1.079849277951871E+001	-3.0717422E-004	-9.7399038E-001	2.8309916E+004	1.0091832E-001	1.000000000000000E+000	9	1.0467856E-002	5.0298411E-002	0	-3.739660209341777E-003	4.8050261E+000	9.0721911E-003	4.8050346E+000	1.0817791E-001	1.0091763E+002	5.3450715E+004	5.3450809E+004	-8.9891823E+001	0.0000000E+000	0.0000000E+000	0.0000000E+000	8.9891823E+001	0.0000000E+000	0.0000000E+000	0.0000000E+000	-8.9891823E+001	0.0000000E+000	0.0000000E+000	0.0000000E+000	-1.0817791E-001	0.0000000E+000	0.0000000E+000	0.0000000E+000	1.0817791E-001	5.2964331E+002	1.0817791E-001	-2.408715281496600E-004
1.0670281E+004	2.0932528E-001	1.7109162E-003	2.0933227E-001	-4.6829554E-001	1.162247457870399E+001	-3.0609313E-004	-9.7953963E-001	8.7179736E+003	5.8237219E-001	1.000000000000000E+000	9	1.0498520E-002	5.0152421E-002	0	-3.938227638940016E-003	4.7769346E+000	3.9044186E-002	4.7770944E+000	4.6829554E-001	5.8236810E+002	7.1251430E+004	7.1253813E+004	-8.9531708E+001	0.0000000E+000	0.0000000E+000	0.0000000E+000	8.9531708E+001	0.0000000E+000	0.0000000E+000	0.0000000E+000	-8.9531708E+001	0.0000000E+000	0.0000000E+000	0.0000000E+000	-4.6829554E-001	0.0000000E+000	0.0000000E+000	0.0000000E+000	4.6829554E-001	1.2234689E+002	4.6829554E-001	-1.985674295982395E-004
7.9597627E+003	2.1041164E-001	2.4724996E-003	2.1042617E-001	-6.7323875E-001	1.255874318319547E+001	-3.1276594E-004	-9.7134608E-001	8.0869316E+003	1.1164949E+000	1.000000000000000E+000	9	1.0403038E-002	4.9437948E-002	0	-4.105994441107329E-003	4.7519326E+000	5.5838887E-002	4.7522607E+000	6.7323875E-001	1.1164980E+003	9.5014578E+004	9.5021141E+004	-8.9326759E+001	0.0000000E+000	0.0000000E+000	0.0000000E+000	8.9326759E+001	0.0000000E+000	0.0000000E+000	0.0000000E+000	-8.9326759E+001	0.0000000E+000	0.0000000E+000	0.0000000E+000	-6.7323875E-001	0.0000000E+000	0.0000000E+000	0.0000000E+000	6.7323875E-001	8.5100777E+001	6.7323875E-001	-1.677668021673132E-004
5.9375000E+003	2.1149871E-001	2.9846854E-003	2.1151976E-001	-8.0850857E-001	1.373951710588881E+001	-2.9928985E-004	-8.8481086E-001	8.9808604E+003	1.7881879E+000	1.000000000000000E+000	9	1.0309346E-002	4.8739400E-002	0	-4.323997708456177E-003	4.7272201E+000	6.6710874E-002	4.7276907E+000	8.0850857E-001	1.7881907E+003	1.2671334E+005	1.2672595E+005	-8.9191490E+001	0.0000000E+000	0.0000000E+000	0.0000000E+000	8.9191490E+001	0.0000000E+000	0.0000000E+000	0.0000000E+000	-8.9191490E+001	0.0000000E+000	0.0000000E+000	0.0000000E+000	-8.0850857E-001	0.0000000E+000	0.0000000E+000	0.0000000E+000	8.0850857E-001	7.0861305E+001	8.0850857E-001	-2.180032673488475E-004
4.4314180E+003	2.1252914E-001	3.2909198E-003	2.1255462E-001	-8.8712895E-001	1.507769932950760E+001	-2.9712770E-004	-8.6004394E-001	1.0913401E+004	2.6160958E+000	1.000000000000000E+000	9	1.0168206E-002	4.7838084E-002	0	-4.531554876759028E-003	4.7041092E+000	7.2841056E-002	4.7046733E+000	8.8712895E-001	2.6161011E+003	1.6894869E+005	1.6896894E+005	-8.9112869E+001	0.0000000E+000	0.0000000E+000	0.0000000E+000	8.9112869E+001	0.0000000E+000	0.0000000E+000	0.0000000E+000	-8.9112869E+001	0.0000000E+000	0.0000000E+000	0.0000000E+000	-8.8712895E-001	0.0000000E+000	0.0000000E+000	0.0000000E+000	8.8712895E-001	6.4580467E+001	8.8712895E-001	-2.075571683028505E-004
3.3060581E+003	2.1345040E-001	3.4010839E-003	2.1347749E-001	-9.1286439E-001	1.619371114251408E+001	-2.9576704E-004	-8.7797660E-001	1.4154428E+004	3.5927153E+000	1.000000000000000E+000	9	1.0755682E-002	5.0383214E-002	0	-4.789194852657616E-003	4.6837401E+000	7.4629955E-002	4.6843348E+000	9.1286439E-001	3.5927163E+003	2.2547708E+005	2.2550570E+005	-8.9087135E+001	0.0000000E+000	0.0000000E+000	0.0000000E+000	8.9087135E+001	0.0000000E+000	0.0000000E+000	0.0000000E+000	-8.9087135E+001	0.0000000E+000	0.0000000E+000	0.0000000E+000	-9.1286439E-001	0.0000000E+000	0.0000000E+000	0.0000000E+000	9.1286439E-001	6.2759521E+001	9.1286439E-001	-2.576399758985890E-004
2.4657891E+003	2.1423030E-001	3.3967546E-003	2.1425723E-001	-9.0838408E-001	1.753070272602054E+001	-2.9444369E-004	-8.7289292E-001	1.9002031E+004	4.7759242E+000	1.000000000000000E+000	9	1.0069286E-002	4.6996247E-002	0	-5.079719756036169E-003	4.6667008E+000	7.3993444E-002	4.6672873E+000	9.0838408E-001	4.7759355E+003	3.0121328E+005	3.0125116E+005	-8.9091614E+001	0.0000000E+000	0.0000000E+000	0.0000000E+000	8.9091614E+001	0.0000000E+000	0.0000000E+000	0.0000000E+000	-8.9091614E+001	0.0000000E+000	0.0000000E+000	0.0000000E+000	-9.0838408E-001	0.0000000E+000	0.0000000E+000	0.0000000E+000	9.0838408E-001	6.3069111E+001	9.0838408E-001	-2.905249033785529E-004
1.8382352E+003	2.1508250E-001	3.2477649E-003	2.1510701E-001	-8.6510569E-001	1.864696560567245E+001	-2.9621439E-004	-8.7797666E-001	2.6658424E+004	6.0770736E+000	1.000000000000000E+000	9	1.0256279E-002	4.7679894E-002	0	-5.392008171116312E-003	4.6483192E+000	7.0190035E-002	4.6488490E+000	8.6510569E-001	6.0770669E+003	4.0245284E+005	4.0249872E+005	-8.9134895E+001	0.0000000E+000	0.0000000E+000	0.0000000E+000	8.9134895E+001	0.0000000E+000	0.0000000E+000	0.0000000E+000	-8.9134895E+001	0.0000000E+000	0.0000000E+000	0.0000000E+000	-8.6510569E-001	0.0000000E+000	0.0000000E+000	0.0000000E+000	8.6510569E-001	6.6224777E+001	8.6510569E-001	-3.122884150801430E-004
1.3721958E+003	2.1582334E-001	3.1060700E-003	2.1584569E-001	-8.2452816E-001	1.976244917864096E+001	-2.9386586E-004	-8.7142187E-001	3.7341590E+004	7.7326527E+000	1.000000000000000E+000	9	1.0360410E-002	4.7999151E-002	0	-5.702008802404213E-003	4.6324596E+000	6.6669084E-002	4.6329393E+000	8.2452816E-001	7.7326846E+003	5.3729856E+005	5.3735419E+005	-8.9175468E+001	0.0000000E+000	0.0000000E+000	0.0000000E+000	8.9175468E+001	0.0000000E+000	0.0000000E+000	0.0000000E+000	-8.9175468E+001	0.0000000E+000	0.0000000E+000	0.0000000E+000	-8.2452816E-001	0.0000000E+000	0.0000000E+000	0.0000000E+000	8.2452816E-001	6.9484375E+001	8.2452816E-001	-3.100006312879008E-004
1.0240171E+003	2.1627223E-001	2.9099532E-003	2.1629182E-001	-7.7087086E-001	2.087794808499166E+001	-3.0348366E-004	-8.7302327E-001	5.3410531E+004	9.6676016E+000	1.000000000000000E+000	9	1.0407289E-002	4.8116889E-002	0	-5.961796567736193E-003	4.6229649E+000	6.2202211E-002	4.6233835E+000	7.7087086E-001	9.6676406E+003	7.1851113E+005	7.1857619E+005	-8.9229126E+001	0.0000000E+000	0.0000000E+000	0.0000000E+000	8.9229126E+001	0.0000000E+000	0.0000000E+000	0.0000000E+000	-8.9229126E+001	0.0000000E+000	0.0000000E+000	0.0000000E+000	-7.7087086E-001	0.0000000E+000	0.0000000E+000	0.0000000E+000	7.7087086E-001	7.4321548E+001	7.7087086E-001	-2.597877653319801E-004
7.6329034E+002	2.1686883E-001	2.7322134E-003	2.1688604E-001	-7.2180039E-001	2.199721341810073E+001	-2.9065995E-004	-8.6384273E-001	7.6316031E+004	1.2111050E+001	1.000000000000000E+000	9	1.0439923E-002	4.8135523E-002	0	-6.251675093823837E-003	4.6103506E+000	5.8083314E-002	4.6107163E+000	7.2180039E-001	1.2111072E+004	9.6131188E+005	9.6138819E+005	-8.9278198E+001	0.0000000E+000	0.0000000E+000	0.0000000E+000	8.9278198E+001	0.0000000E+000	0.0000000E+000	0.0000000E+000	-8.9278198E+001	0.0000000E+000	0.0000000E+000	0.0000000E+000	-7.2180039E-001	0.0000000E+000	0.0000000E+000	0.0000000E+000	7.2180039E-001	7.9374779E+001	7.2180039E-001	-2.898785260876434E-004
5.6945331E+002	2.1735425E-001	2.6290233E-003	2.1737015E-001	-6.9299120E-001	2.311296779115219E+001	-2.9880524E-004	-8.4261400E-001	1.0630840E+005	1.5550939E+001	1.000000000000000E+000	9	1.0456640E-002	4.8105225E-002	0	-6.560703425741030E-003	4.6001110E+000	5.5640958E-002	4.6004477E+000	6.9299120E-001	1.5550982E+004	1.2856725E+006	1.2857665E+006	-8.9307007E+001	0.0000000E+000	0.0000000E+000	0.0000000E+000	8.9307007E+001	0.0000000E+000	0.0000000E+000	0.0000000E+000	-8.9307007E+001	0.0000000E+000	0.0000000E+000	0.0000000E+000	-6.9299120E-001	0.0000000E+000	0.0000000E+000	0.0000000E+000	6.9299120E-001	8.2674904E+001	6.9299120E-001	-3.090283319171936E-004
4.2513608E+002	2.1777023E-001	2.5445526E-003	2.1778511E-001	-6.6944629E-001	2.422866701748717E+001	-2.9463007E-004	-8.5805136E-001	1.4712306E+005	2.0083862E+001	1.000000000000000E+000	9	1.0465822E-002	4.8055731E-002	0	-6.808979468119124E-003	4.5913692E+000	5.3648189E-002	4.5916824E+000	6.6944629E-001	2.0083939E+004	1.7188356E+006	1.7189530E+006	-8.9330551E+001	0.0000000E+000	0.0000000E+000	0.0000000E+000	8.9330551E+001	0.0000000E+000	0.0000000E+000	0.0000000E+000	-8.9330551E+001	0.0000000E+000	0.0000000E+000	0.0000000E+000	-6.6944629E-001	0.0000000E+000	0.0000000E+000	0.0000000E+000	6.6944629E-001	8.5582916E+001	6.6944629E-001	-2.482760423780936E-004
3.1713113E+002	2.1812899E-001	2.4837477E-003	2.1814314E-001	-6.5237600E-001	2.533942915018997E+001	-2.9123775E-004	-8.5928047E-001	2.0205695E+005	2.6194229E+001	1.000000000000000E+000	9	1.0469589E-002	4.7994126E-002	0	-7.040045031176673E-003	4.5838490E+000	5.2194458E-002	4.5841460E+000	6.5237600E-001	2.6194162E+004	2.3004433E+006	2.3005925E+006	-8.9347626E+001	0.0000000E+000	0.0000000E+000	0.0000000E+000	8.9347626E+001	0.0000000E+000	0.0000000E+000	0.0000000E+000	-8.9347626E+001	0.0000000E+000	0.0000000E+000	0.0000000E+000	-6.5237600E-001	0.0000000E+000	0.0000000E+000	0.0000000E+000	6.5237600E-001	8.7822525E+001	6.5237600E-001	-2.310655630575493E-004
2.3658990E+002	2.1844088E-001	2.5329359E-003	2.1845555E-001	-6.6434473E-001	2.644942157625337E+001	-2.9792919E-004	-8.5659891E-001	2.6558266E+005	3.5704418E+001	1.000000000000000E+000	9	1.0469505E-002	4.7925103E-002	0	-7.256148008923564E-003	4.5772824E+000	5.3075980E-002	4.5775900E+000	6.6434473E-001	3.5704422E+004	3.0791558E+006	3.0793628E+006	-8.9335655E+001	0.0000000E+000	0.0000000E+000	0.0000000E+000	8.9335655E+001	0.0000000E+000	0.0000000E+000	0.0000000E+000	-8.9335655E+001	0.0000000E+000	0.0000000E+000	0.0000000E+000	-6.6434473E-001	0.0000000E+000	0.0000000E+000	0.0000000E+000	6.6434473E-001	8.6240189E+001	6.6434473E-001	-2.161029777468905E-004
1.7641125E+002	2.1884491E-001	2.6121167E-003	2.1886049E-001	-6.8384576E-001	2.755716344222310E+001	-3.0016588E-004	-8.6198056E-001	3.4538325E+005	4.9198483E+001	1.000000000000000E+000	9	1.0472758E-002	4.7851294E-002	0	-7.561426882922753E-003	4.5687957E+000	5.4532807E-002	4.5691209E+000	6.8384576E-001	4.9198465E+004	4.1218823E+006	4.1221758E+006	-8.9316154E+001	0.0000000E+000	0.0000000E+000	0.0000000E+000	8.9316154E+001	0.0000000E+000	0.0000000E+000	0.0000000E+000	-8.9316154E+001	0.0000000E+000	0.0000000E+000	0.0000000E+000	-6.8384576E-001	0.0000000E+000	0.0000000E+000	0.0000000E+000	6.8384576E-001	8.3780678E+001	6.8384576E-001	-3.052788739991890E-004
1.3155768E+002	2.1918111E-001	2.7770756E-003	2.1919870E-001	-7.2591203E-001	2.866139864132856E+001	-3.0188067E-004	-8.7779045E-001	4.3562847E+005	6.9922295E+001	1.000000000000000E+000	9	1.0472123E-002	4.7774564E-002	0	-7.801080563482156E-003	4.5617046E+000	5.7797860E-002	4.5620708E+000	7.2591203E-001	6.9922484E+004	5.5186275E+006	5.5190705E+006	-8.9274086E+001	0.0000000E+000	0.0000000E+000	0.0000000E+000	8.9274086E+001	0.0000000E+000	0.0000000E+000	0.0000000E+000	-8.9274086E+001	0.0000000E+000	0.0000000E+000	0.0000000E+000	-7.2591203E-001	0.0000000E+000	0.0000000E+000	0.0000000E+000	7.2591203E-001	7.8925148E+001	7.2591203E-001	-2.396536805594034E-004
9.8146988E+001	2.1969931E-001	3.1230578E-003	2.1972151E-001	-8.1441301E-001	2.979652378856554E+001	-3.0873987E-004	-8.7484825E-001	5.1923400E+005	1.0490061E+002	1.000000000000000E+000	9	1.0476183E-002	4.7679368E-002	0	-8.039030682232749E-003	4.5507560E+000	6.4689659E-002	4.5512156E+000	8.1441301E-001	1.0490087E+005	7.3794960E+006	7.3802415E+006	-8.9185585E+001	0.0000000E+000	0.0000000E+000	0.0000000E+000	8.9185585E+001	0.0000000E+000	0.0000000E+000	0.0000000E+000	-8.9185585E+001	0.0000000E+000	0.0000000E+000	0.0000000E+000	-8.1441301E-001	0.0000000E+000	0.0000000E+000	0.0000000E+000	8.1441301E-001	7.0347504E+001	8.1441301E-001	-2.379501187505925E-004
7.3242188E+001	2.2014627E-001	3.4765536E-003	2.2017372E-001	-9.0474075E-001	3.093654032269842E+001	-2.9653125E-004	-8.7296742E-001	6.2504300E+005	1.5583923E+002	1.000000000000000E+000	9	1.0475132E-002	4.7576666E-002	0	-8.355713341292925E-003	4.5413022E+000	7.1716323E-002	4.5418682E+000	9.0474075E-001	1.5583900E+005	9.8682290E+006	9.8694590E+006	-8.9095261E+001	0.0000000E+000	0.0000000E+000	0.0000000E+000	8.9095261E+001	0.0000000E+000	0.0000000E+000	0.0000000E+000	-8.9095261E+001	0.0000000E+000	0.0000000E+000	0.0000000E+000	-9.0474075E-001	0.0000000E+000	0.0000000E+000	0.0000000E+000	9.0474075E-001	6.3323135E+001	9.0474075E-001	-3.166826590601766E-004
5.4598160E+001	2.2066970E-001	3.9391634E-003	2.2070485E-001	-1.0226754E+000	3.206123394946917E+001	-2.9737002E-004	-8.3792132E-001	7.4001094E+005	2.3573407E+002	1.000000000000000E+000	9	1.0473331E-002	4.7454014E-002	0	-8.573817522800295E-003	4.5302162E+000	8.0868661E-002	4.5309381E+000	1.0226754E+000	2.3573389E+005	1.3205689E+007	1.3207793E+007	-8.8977325E+001	0.0000000E+000	0.0000000E+000	0.0000000E+000	8.8977325E+001	0.0000000E+000	0.0000000E+000	0.0000000E+000	-8.8977325E+001	0.0000000E+000	0.0000000E+000	0.0000000E+000	-1.0226754E+000	0.0000000E+000	0.0000000E+000	0.0000000E+000	1.0226754E+000	5.6019432E+001	1.0226754E+000	-2.181041815073701E-004
4.0743153E+001	2.2129054E-001	4.3897857E-003	2.2133408E-001	-1.1364390E+000	3.316009178836248E+001	-2.9621439E-004	-8.4885222E-001	8.8986106E+005	3.5003561E+002	1.000000000000000E+000	9	1.0473990E-002	4.7322083E-002	0	-8.819266093564530E-003	4.5171680E+000	8.9607984E-002	4.5180569E+000	1.1364390E+000	3.5003481E+005	1.7645410E+007	1.7648882E+007	-8.8863564E+001	0.0000000E+000	0.0000000E+000	0.0000000E+000	8.8863564E+001	0.0000000E+000	0.0000000E+000	0.0000000E+000	-8.8863564E+001	0.0000000E+000	0.0000000E+000	0.0000000E+000	-1.1364390E+000	0.0000000E+000	0.0000000E+000	0.0000000E+000	1.1364390E+000	5.0410328E+001	1.1364390E+000	-2.454485707642350E-004
3.0398830E+001	2.2202361E-001	5.0706971E-003	2.2208150E-001	-1.3083251E+000	3.426412069410435E+001	-2.9955080E-004	-8.6669195E-001	1.0325131E+006	5.3827747E+002	1.000000000000000E+000	9	1.0474264E-002	4.7164053E-002	0	-9.193246200353736E-003	4.5016775E+000	1.0281178E-001	4.5028515E+000	1.3083251E+000	5.3827813E+005	2.3568810E+007	2.3574956E+007	-8.8691673E+001	0.0000000E+000	0.0000000E+000	0.0000000E+000	8.8691673E+001	0.0000000E+000	0.0000000E+000	0.0000000E+000	-8.8691673E+001	0.0000000E+000	0.0000000E+000	0.0000000E+000	-1.3083251E+000	0.0000000E+000	0.0000000E+000	0.0000000E+000	1.3083251E+000	4.3785618E+001	1.3083251E+000	-3.739801067892054E-004
2.2658066E+001	2.2287130E-001	5.8068018E-003	2.2294694E-001	-1.4924756E+000	3.548244760531816E+001	-2.9333465E-004	-8.5589129E-001	1.2096516E+006	8.2059955E+002	1.000000000000000E+000	9	1.0472156E-002	4.6971519E-002	0	-9.321159466754231E-003	4.4838505E+000	1.1682452E-001	4.4853721E+000	1.4924756E+000	8.2060050E+005	3.1495492E+007	3.1506180E+007	-8.8507523E+001	0.0000000E+000	0.0000000E+000	0.0000000E+000	8.8507523E+001	0.0000000E+000	0.0000000E+000	0.0000000E+000	-8.8507523E+001	0.0000000E+000	0.0000000E+000	0.0000000E+000	-1.4924756E+000	0.0000000E+000	0.0000000E+000	0.0000000E+000	1.4924756E+000	3.8381077E+001	1.4924756E+000	-1.279132664004957E-004
1.6910175E+001	2.2388183E-001	6.7037982E-003	2.2398217E-001	-1.7151219E+000	3.648515687961481E+001	-2.9960671E-004	-8.7319088E-001	1.4039483E+006	1.2576682E+003	1.000000000000000E+000	9	1.0475416E-002	4.6768971E-002	0	-9.531089772108115E-003	4.4626408E+000	1.3362695E-001	4.4646411E+000	1.7151219E+000	1.2576656E+006	4.2001420E+007	4.2020244E+007	-8.8284882E+001	0.0000000E+000	0.0000000E+000	0.0000000E+000	8.8284882E+001	0.0000000E+000	0.0000000E+000	0.0000000E+000	-8.8284882E+001	0.0000000E+000	0.0000000E+000	0.0000000E+000	-1.7151219E+000	0.0000000E+000	0.0000000E+000	0.0000000E+000	1.7151219E+000	3.3396267E+001	1.7151219E+000	-2.099303053538833E-004
1.2627966E+001	2.2498608E-001	7.6048342E-003	2.2511457E-001	-1.9359379E+000	3.779037243491621E+001	-2.8877740E-004	-8.5052830E-001	1.6572843E+006	1.8913385E+003	1.000000000000000E+000	9	1.0476459E-002	4.6538342E-002	0	-1.010513112256717E-002	4.4396472E+000	1.5006608E-001	4.4421825E+000	1.9359379E+000	1.8913369E+006	5.5954524E+007	5.5986480E+007	-8.8064064E+001	0.0000000E+000	0.0000000E+000	0.0000000E+000	8.8064064E+001	0.0000000E+000	0.0000000E+000	0.0000000E+000	-8.8064064E+001	0.0000000E+000	0.0000000E+000	0.0000000E+000	-1.9359379E+000	0.0000000E+000	0.0000000E+000	0.0000000E+000	1.9359379E+000	2.9584614E+001	1.9359379E+000	-5.740413504590584E-004
9.4126539E+000	2.2622813E-001	8.6075738E-003	2.2639182E-001	-2.1789503E+000	3.896624950409750E+001	-3.0201118E-004	-8.8868421E-001	1.9643881E+006	2.8396665E+003	1.000000000000000E+000	9	1.0476096E-002	4.6274178E-002	0	-1.035306308250419E-002	4.4139266E+000	1.6794197E-001	4.4171205E+000	2.1789503E+000	2.8396625E+006	7.4633392E+007	7.4687392E+007	-8.7821053E+001	0.0000000E+000	0.0000000E+000	0.0000000E+000	8.7821053E+001	0.0000000E+000	0.0000000E+000	0.0000000E+000	-8.7821053E+001	0.0000000E+000	0.0000000E+000	0.0000000E+000	-2.1789503E+000	0.0000000E+000	0.0000000E+000	0.0000000E+000	2.1789503E+000	2.6282450E+001	2.1789503E+000	-2.479319599370169E-004
7.0256276E+000	2.2761530E-001	1.0070740E-002	2.2783798E-001	-2.5333745E+000	3.980204645049525E+001	-3.2497454E-004	-1.0060942E+000	2.2494358E+006	4.3948511E+003	1.000000000000000E+000	9	1.0471479E-002	4.5960199E-002	0	-1.068621638713296E-002	4.3847942E+000	1.9400330E-001	4.3890839E+000	2.5333745E+000	4.3948445E+006	9.9330864E+007	9.9428040E+007	-8.7466629E+001	0.0000000E+000	0.0000000E+000	0.0000000E+000	8.7466629E+001	0.0000000E+000	0.0000000E+000	0.0000000E+000	-8.7466629E+001	0.0000000E+000	0.0000000E+000	0.0000000E+000	-2.5333745E+000	0.0000000E+000	0.0000000E+000	0.0000000E+000	2.5333745E+000	2.2601645E+001	2.5333745E+000	-3.331533046287694E-004
5.2362599E+000	2.2934270E-001	1.1641367E-002	2.2963797E-001	-2.9058230E+000	4.087471340813499E+001	-2.9878659E-004	-9.6300358E-001	2.6109283E+006	6.7098926E+003	1.000000000000000E+000	9	1.0473719E-002	4.5609701E-002	0	-1.036324117944990E-002	4.3490815E+000	2.2075810E-001	4.3546805E+000	2.9058230E+000	6.7098920E+006	1.3218935E+008	1.3235954E+008	-8.7094177E+001	0.0000000E+000	0.0000000E+000	0.0000000E+000	8.7094177E+001	0.0000000E+000	0.0000000E+000	0.0000000E+000	-8.7094177E+001	0.0000000E+000	0.0000000E+000	0.0000000E+000	-2.9058230E+000	0.0000000E+000	0.0000000E+000	0.0000000E+000	2.9058230E+000	1.9700666E+001	2.9058230E+000	3.229752076830614E-004
3.9062498E+000	2.3094089E-001	1.3250174E-002	2.3132069E-001	-3.2837305E+000	4.227179411448014E+001	-2.9177830E-004	-8.2505381E-001	3.0749533E+006	1.0089106E+004	1.000000000000000E+000	9	1.0474171E-002	4.5279872E-002	0	-1.136143356071019E-002	4.3159051E+000	2.4762394E-001	4.3230028E+000	3.2837305E+000	1.0089104E+007	1.7584581E+008	1.7613499E+008	-8.6716270E+001	0.0000000E+000	0.0000000E+000	0.0000000E+000	8.6716270E+001	0.0000000E+000	0.0000000E+000	0.0000000E+000	-8.6716270E+001	0.0000000E+000	0.0000000E+000	0.0000000E+000	-3.2837305E+000	0.0000000E+000	0.0000000E+000	0.0000000E+000	3.2837305E+000	1.7429272E+001	3.2837305E+000	-9.981923812602961E-004
2.9129384E+000	2.3364061E-001	1.5170757E-002	2.3413263E-001	-3.7151153E+000	4.410815766835003E+001	-2.8754069E-004	-8.4485364E-001	3.6014845E+006	1.5120709E+004	1.000000000000000E+000	9	1.0474393E-002	4.4737007E-002	0	-1.066301923004724E-002	4.2621078E+000	2.7674729E-001	4.2710834E+000	3.7151153E+000	1.5120723E+007	2.3286986E+008	2.3336026E+008	-8.6284882E+001	0.0000000E+000	0.0000000E+000	0.0000000E+000	8.6284882E+001	0.0000000E+000	0.0000000E+000	0.0000000E+000	-8.6284882E+001	0.0000000E+000	0.0000000E+000	0.0000000E+000	-3.7151153E+000	0.0000000E+000	0.0000000E+000	0.0000000E+000	3.7151153E+000	1.5400723E+001	3.7151153E+000	6.984143306629532E-004
2.1749718E+000	2.3651838E-001	1.7235318E-002	2.3714553E-001	-4.1678305E+000	4.653573354368564E+001	-2.8399180E-004	-8.1544030E-001	4.2456795E+006	2.2426213E+004	1.000000000000000E+000	9	1.0476064E-002	4.4175677E-002	0	-1.201084724149563E-002	4.2056680E+000	3.0647099E-001	4.2168198E+000	4.1678305E+000	2.2426216E+007	3.0775245E+008	3.0856848E+008	-8.5832169E+001	0.0000000E+000	0.0000000E+000	0.0000000E+000	8.5832169E+001	0.0000000E+000	0.0000000E+000	0.0000000E+000	-8.5832169E+001	0.0000000E+000	0.0000000E+000	0.0000000E+000	-4.1678305E+000	0.0000000E+000	0.0000000E+000	0.0000000E+000	4.1678305E+000	1.3722891E+001	4.1678305E+000	-1.347828011448391E-003
1.6208506E+000	2.3963229E-001	1.9354094E-002	2.4041259E-001	-4.6175170E+000	4.976302631027647E+001	-2.8427760E-004	-8.0500448E-001	5.0734605E+006	3.2880285E+004	1.000000000000000E+000	9	1.0476436E-002	4.3576900E-002	0	-1.384682364518940E-002	4.1460152E+000	3.3485627E-001	4.1595159E+000	4.6175170E+000	3.2880278E+007	4.0710656E+008	4.0843219E+008	-8.5382484E+001	0.0000000E+000	0.0000000E+000	0.0000000E+000	8.5382484E+001	0.0000000E+000	0.0000000E+000	0.0000000E+000	-8.5382484E+001	0.0000000E+000	0.0000000E+000	0.0000000E+000	-4.6175170E+000	0.0000000E+000	0.0000000E+000	0.0000000E+000	4.6175170E+000	1.2381478E+001	4.6175170E+000	-1.835976403693772E-003
1.2104893E+000	2.4328291E-001	2.1938611E-002	2.4427010E-001	-5.1528444E+000	5.405619115420268E+001	-2.7674157E-004	-8.0069816E-001	5.9930795E+006	4.8342340E+004	1.000000000000000E+000	9	1.0475609E-002	4.2885352E-002	0	-1.393560730010023E-002	4.0772843E+000	3.6767870E-001	4.0938287E+000	5.1528444E+000	4.8342368E+007	5.3608070E+008	5.3825600E+008	-8.4847153E+001	0.0000000E+000	0.0000000E+000	0.0000000E+000	8.4847153E+001	0.0000000E+000	0.0000000E+000	0.0000000E+000	-8.4847153E+001	0.0000000E+000	0.0000000E+000	0.0000000E+000	-5.1528444E+000	0.0000000E+000	0.0000000E+000	0.0000000E+000	5.1528444E+000	1.1089258E+001	5.1528444E+000	-8.878365491082202E-005
9.0213656E-001	2.4731833E-001	2.4502346E-002	2.4852911E-001	-5.6579504E+000	6.094479041473824E+001	-2.7413794E-004	-7.4760962E-001	7.2001270E+006	6.9984359E+004	1.000000000000000E+000	10	1.0475193E-002	4.2148758E-002	0	-1.330435101122471E-002	4.0040708E+000	3.9669174E-001	4.0236735E+000	5.6579504E+000	6.9984376E+007	7.0639821E+008	7.0985651E+008	-8.4342049E+001	0.0000000E+000	0.0000000E+000	0.0000000E+000	8.4342049E+001	0.0000000E+000	0.0000000E+000	0.0000000E+000	-8.4342049E+001	0.0000000E+000	0.0000000E+000	0.0000000E+000	-5.6579504E+000	0.0000000E+000	0.0000000E+000	0.0000000E+000	5.6579504E+000	1.0093659E+001	5.6579504E+000	6.312562888755157E-004
6.7372370E-001	2.5226077E-001	2.7258502E-002	2.5372922E-001	-6.1672721E+000	6.859288909798488E+001	-2.7946901E-004	-7.7115411E-001	8.6663520E+006	1.0002287E+005	1.000000000000000E+000	10	1.0477879E-002	4.1295514E-002	0	-1.441101917241203E-002	3.9183996E+000	4.2340991E-001	3.9412093E+000	6.1672721E+000	1.0002291E+008	9.2565043E+008	9.3103885E+008	-8.3832726E+001	0.0000000E+000	0.0000000E+000	0.0000000E+000	8.3832726E+001	0.0000000E+000	0.0000000E+000	0.0000000E+000	-8.3832726E+001	0.0000000E+000	0.0000000E+000	0.0000000E+000	-6.1672721E+000	0.0000000E+000	0.0000000E+000	0.0000000E+000	6.1672721E+000	9.2543888E+000	6.1672721E+000	-1.106668161187322E-003
5.0234693E-001	2.5760525E-001	3.0218111E-002	2.5937155E-001	-6.6904454E+000	7.882564046404150E+001	-2.7226700E-004	-7.5257015E-001	1.0484532E+007	1.4231117E+005	1.000000000000000E+000	10	1.0477953E-002	4.0397465E-002	0	-1.859813972128100E-002	3.8292177E+000	4.4918233E-001	3.8554730E+000	6.6904454E+000	1.4231117E+008	1.2131832E+009	1.2215016E+009	-8.3309555E+001	0.0000000E+000	0.0000000E+000	0.0000000E+000	8.3309555E+001	0.0000000E+000	0.0000000E+000	0.0000000E+000	-8.3309555E+001	0.0000000E+000	0.0000000E+000	0.0000000E+000	-6.6904454E+000	0.0000000E+000	0.0000000E+000	0.0000000E+000	6.6904454E+000	8.5248632E+000	6.6904454E+000	-4.187120548868967E-003
3.7502402E-001	2.6368222E-001	3.2831617E-002	2.6571831E-001	-7.0974884E+000	9.250517375374329E+001	-2.7160815E-004	-7.4429661E-001	1.2926138E+007	1.9733783E+005	1.000000000000000E+000	10	1.0473389E-002	3.9415386E-002	0	-2.501817236378023E-002	3.7345464E+000	4.6499610E-001	3.7633839E+000	7.0974884E+000	1.9733782E+008	1.5848891E+009	1.5971273E+009	-8.2902512E+001	0.0000000E+000	0.0000000E+000	0.0000000E+000	8.2902512E+001	0.0000000E+000	0.0000000E+000	0.0000000E+000	-8.2902512E+001	0.0000000E+000	0.0000000E+000	0.0000000E+000	-7.0974884E+000	0.0000000E+000	0.0000000E+000	0.0000000E+000	7.0974884E+000	8.0313501E+000	7.0974884E+000	-6.420032642499234E-003
2.7983737E-001	2.7056447E-001	3.5664689E-002	2.7290493E-001	-7.5092006E+000	1.108151605701132E+002	-2.6929699E-004	-7.2586572E-001	1.5946890E+007	2.7235172E+005	1.000000000000000E+000	10	1.0475650E-002	3.8385712E-002	0	-3.135562693712633E-002	3.6328545E+000	4.7886786E-001	3.6642797E+000	7.5092006E+000	2.7235174E+008	2.0661527E+009	2.0840256E+009	-8.2490799E+001	0.0000000E+000	0.0000000E+000	0.0000000E+000	8.2490799E+001	0.0000000E+000	0.0000000E+000	0.0000000E+000	-8.2490799E+001	0.0000000E+000	0.0000000E+000	0.0000000E+000	-7.5092006E+000	0.0000000E+000	0.0000000E+000	0.0000000E+000	7.5092006E+000	7.5863404E+000	7.5092006E+000	-6.337454573346092E-003
2.0840003E-001	2.7800375E-001	3.8838536E-002	2.8070360E-001	-7.9530373E+000	1.353787648568250E+002	-2.7156770E-004	-7.2438908E-001	1.9663442E+007	3.7643434E+005	1.000000000000000E+000	10	1.0476745E-002	3.7323158E-002	0	-3.519862348265739E-002	3.5282121E+000	4.9290916E-001	3.5624766E+000	7.9530373E+000	3.7643418E+008	2.6944929E+009	2.7206607E+009	-8.2046967E+001	0.0000000E+000	0.0000000E+000	0.0000000E+000	8.2046967E+001	0.0000000E+000	0.0000000E+000	0.0000000E+000	-8.2046967E+001	0.0000000E+000	0.0000000E+000	0.0000000E+000	-7.9530373E+000	0.0000000E+000	0.0000000E+000	0.0000000E+000	7.9530373E+000	7.1579361E+000	7.9530373E+000	-3.842996545531066E-003
1.5541697E-001	2.8623903E-001	4.1836735E-002	2.8928030E-001	-8.3154783E+000	1.682915893267200E+002	-2.7299958E-004	-7.2410530E-001	2.4477324E+007	5.1196681E+005	1.000000000000000E+000	10	1.0475218E-002	3.6211308E-002	0	-3.585331605014619E-002	3.4205120E+000	4.9994248E-001	3.4568548E+000	8.3154783E+000	5.1196659E+008	3.5027799E+009	3.5399967E+009	-8.1684525E+001	0.0000000E+000	0.0000000E+000	0.0000000E+000	8.1684525E+001	0.0000000E+000	0.0000000E+000	0.0000000E+000	-8.1684525E+001	0.0000000E+000	0.0000000E+000	0.0000000E+000	-8.3154783E+000	0.0000000E+000	0.0000000E+000	0.0000000E+000	8.3154783E+000	6.8418107E+000	8.3154783E+000	-6.546925674887974E-004
1.1607092E-001	2.9605755E-001	4.4404827E-002	2.9936910E-001	-8.5300455E+000	2.123400627522788E+002	-2.7153900E-004	-7.2081012E-001	3.0879236E+007	6.7938031E+005	1.000000000000000E+000	10	1.0477451E-002	3.4998439E-002	0	-3.546991968617837E-002	3.3034079E+000	4.9546874E-001	3.3403583E+000	8.5300455E+000	6.7938022E+008	4.5295898E+009	4.5802557E+009	-8.1469955E+001	0.0000000E+000	0.0000000E+000	0.0000000E+000	8.1469955E+001	0.0000000E+000	0.0000000E+000	0.0000000E+000	-8.1469955E+001	0.0000000E+000	0.0000000E+000	0.0000000E+000	-8.5300455E+000	0.0000000E+000	0.0000000E+000	0.0000000E+000	8.5300455E+000	6.6672382E+000	8.5300455E+000	3.833963639678223E-004
8.6509481E-002	3.0739230E-001	4.5523506E-002	3.1074494E-001	-8.4240332E+000	2.714191469450307E+002	-2.6655337E-004	-7.1567273E-001	4.0412968E+007	8.6732925E+005	1.000000000000000E+000	10	1.0474240E-002	3.3706874E-002	0	-3.978796275349334E-002	3.1833534E+000	4.7144124E-001	3.2180734E+000	8.4240332E+000	8.6732928E+008	5.8565422E+009	5.9204178E+009	-8.1575966E+001	0.0000000E+000	0.0000000E+000	0.0000000E+000	8.1575966E+001	0.0000000E+000	0.0000000E+000	0.0000000E+000	-8.1575966E+001	0.0000000E+000	0.0000000E+000	0.0000000E+000	-8.4240332E+000	0.0000000E+000	0.0000000E+000	0.0000000E+000	8.4240332E+000	6.7523866E+000	8.4240332E+000	-4.318043067314974E-003
6.4577855E-002	3.1865788E-001	4.3375719E-002	3.2159647E-001	-7.7514629E+000	3.505412073964544E+002	-2.8044582E-004	-7.5574017E-001	5.6818508E+007	1.0336194E+006	1.000000000000000E+000	10	1.0477788E-002	3.2580543E-002	0	-5.531519499036132E-002	3.0810738E+000	4.1939586E-001	3.1094868E+000	7.7514629E+000	1.0336196E+009	7.5934408E+009	7.6634660E+009	-8.2248535E+001	0.0000000E+000	0.0000000E+000	0.0000000E+000	8.2248535E+001	0.0000000E+000	0.0000000E+000	0.0000000E+000	-8.2248535E+001	0.0000000E+000	0.0000000E+000	0.0000000E+000	-7.7514629E+000	0.0000000E+000	0.0000000E+000	0.0000000E+000	7.7514629E+000	7.3464575E+000	7.7514629E+000	-1.552723223686798E-002
4.8211023E-002	3.2877487E-001	3.9431885E-002	3.3113107E-001	-6.8391485E+000	4.565027538427385E+002	-2.6875598E-004	-7.2427225E-001	8.3719432E+007	1.1871934E+006	1.000000000000000E+000	10	1.0479363E-002	3.1647176E-002	0	-8.958126018066062E-002	2.9984634E+000	3.5962319E-001	3.0199523E+000	6.8391485E+000	1.1871936E+009	9.8985718E+009	9.9695114E+009	-8.3160851E+001	0.0000000E+000	0.0000000E+000	0.0000000E+000	8.3160851E+001	0.0000000E+000	0.0000000E+000	0.0000000E+000	-8.3160851E+001	0.0000000E+000	0.0000000E+000	0.0000000E+000	-6.8391485E+000	0.0000000E+000	0.0000000E+000	0.0000000E+000	6.8391485E+000	8.3377924E+000	6.8391485E+000	-3.426606519029930E-002
3.5963193E-002	3.3821797E-001	3.4970392E-002	3.4002107E-001	-5.9031782E+000	5.985299493353232E+002	-2.7257734E-004	-7.3180538E-001	1.2654978E+008	1.3385998E+006	1.000000000000000E+000	10	1.0474786E-002	3.0806284E-002	0	-1.431130733245665E-001	2.9253986E+000	3.0247453E-001	2.9409943E+000	5.9031782E+000	1.3385990E+009	1.2946339E+010	1.3015357E+010	-8.4096825E+001	0.0000000E+000	0.0000000E+000	0.0000000E+000	8.4096825E+001	0.0000000E+000	0.0000000E+000	0.0000000E+000	-8.4096825E+001	0.0000000E+000	0.0000000E+000	0.0000000E+000	-5.9031782E+000	0.0000000E+000	0.0000000E+000	0.0000000E+000	5.9031782E+000	9.6715527E+000	5.9031782E+000	-5.353181314390587E-002
2.6816482E-002	3.4573287E-001	2.9692020E-002	3.4700552E-001	-4.9085970E+000	7.889794699544727E+002	-2.7054935E-004	-7.2059196E-001	1.9988426E+008	1.4634750E+006	1.000000000000000E+000	10	1.0475414E-002	3.0188033E-002	0	-2.082484603260397E-001	2.8712294E+000	2.4658518E-001	2.8817985E+000	4.9085970E+000	1.4634758E+009	1.7040653E+010	1.7103380E+010	-8.5091400E+001	0.0000000E+000	0.0000000E+000	0.0000000E+000	8.5091400E+001	0.0000000E+000	0.0000000E+000	0.0000000E+000	-8.5091400E+001	0.0000000E+000	0.0000000E+000	0.0000000E+000	-4.9085970E+000	0.0000000E+000	0.0000000E+000	0.0000000E+000	4.9085970E+000	1.1643966E+001	4.9085970E+000	-6.513538700147326E-002
1.9992474E-002	3.5115808E-001	2.4283968E-002	3.5199675E-001	-3.9559312E+000	1.044412666113632E+003	-2.7785409E-004	-7.3490065E-001	3.2781888E+008	1.5602563E+006	1.000000000000000E+000	10	1.0475643E-002	2.9760623E-002	0	-2.718203901245602E-001	2.8341665E+000	1.9599380E-001	2.8409352E+000	3.9559312E+000	1.5602566E+009	2.2562068E+010	2.2615953E+010	-8.6044067E+001	0.0000000E+000	0.0000000E+000	0.0000000E+000	8.6044067E+001	0.0000000E+000	0.0000000E+000	0.0000000E+000	-8.6044067E+001	0.0000000E+000	0.0000000E+000	0.0000000E+000	-3.9559312E+000	0.0000000E+000	0.0000000E+000	0.0000000E+000	3.9559312E+000	1.4460490E+001	3.9559312E+000	-6.357192979852047E-002