EC-Lab ASCII FILE
Nb header lines : 63                          

Potentio Electrochemical Impedance Spectroscopy

Run on channel : 3 (SN 50730)
User : 
CE vs. WE compliance from -10 V to 10 V
Electrode connection : standard
Potential control : Ewe
Ewe ctrl range : min = -10.00 V, max = 10.00 V
Safety Limits :
	Do not start on E overload
Acquisition started on : 02/14/2023 13:54:00.312
Loaded Setting File :  C:\Users\sto063\Documents\EC-Lab\Data\Baichen\Micormolding\20230214_denseNoPatternS4_IDFF\NoPattern_IDFF_05Fe_2MHCL_ve10cms_EIS_PCGA.mps
Saved on :
	File : NoPattern_IDFF_05Fe_2MHCL_ve5cms_EIS_PCGA_01_PEIS_C03.mpr
	Directory : C:\Users\sto063\Documents\EC-Lab\Data\Baichen\Micormolding\20230214_denseNoPatternS4_IDFF\
	Host : 131.155.90.158
Device : VSP-3e (SN .003050)
Address : USB
EC-Lab for windows v11.43 (software)
Internet server v11.40 (firmware)
Command interpretor v11.40 (firmware)
Electrode material : 
Initial state : 
Electrolyte : 
Comments : 
Electrode surface area : 0.001 cm2
Characteristic mass : 0.001 g
Equivalent Weight : 0.000 g/eq.
Density : 0.000 g/cm3
Volume (V) : 0.001 cm3
Cycle Definition : Charge/Discharge alternance
Mode                Single sine         
E (V)               0.0000              
vs.                 Eoc                 
tE (h:m:s)          0:00:0.0000         
record              0                   
dI                  0.000               
unit dI             mA                  
dt (s)              0.000               
fi                  200.000             
unit fi             kHz                 
ff                  20.000              
unit ff             mHz                 
Nd                  8                   
Points              per decade          
spacing             Logarithmic         
Va (mV)             10.0                
pw                  0.10                
Na                  5                   
corr                0                   
E range min (V)     -10.000             
E range max (V)     10.000              
I Range             Auto                
Bandwidth           5                   
nc cycles           0                   
goto Ns'            0                   
nr cycles           0                   
inc. cycle          0                   

freq/Hz	Re(Z)/Ohm	-Im(Z)/Ohm	|Z|/Ohm	Phase(Z)/deg	time/s	<Ewe>/V	<I>/mA	Cs/uF	Cp/uF	cycle number	I Range	|Ewe|/V	|I|/A	Ns	(Q-Qo)/mA.h	Re(Y)/Ohm-1	Im(Y)/Ohm-1	|Y|/Ohm-1	Phase(Y)/deg	Re(C)/nF	Im(C)/nF	|C|/nF	Phase(C)/deg	Re(M)	Im(M)	|M|	Phase(M)/deg	Re(Permittivity)	Im(Permittivity)	|Permittivity|	Phase(Permittivity)/deg	Re(Resistivity)/Ohm.cm	Im(Resistivity)/Ohm.cm	|Resistivity|/Ohm.cm	Phase(Resistivity)/deg	Re(Conductivity)/mS/cm	Im(Conductivity)/mS/cm	|Conductivity|/mS/cm	Phase(Conductivity)/deg	Tan(Delta)	Loss Angle(Delta)/deg	dq/mA.h	
1.9999814E+005	1.8858346E-001	-7.5459123E-002	2.0312017E-001	2.1808149E+001	1.739486962585943E+000	-3.7684746E-004	-1.3231864E+000	-1.0545871E+001	-1.4554584E+000	1.000000000000000E+000	9	8.2776154E-004	4.0752306E-003	0	-4.774179184821357E-004	4.5708556E+000	-1.8289660E+000	4.9231939E+000	-2.1808149E+001	-1.4554584E+003	3.6374048E+003	3.9177893E+003	-1.1180815E+002	0.0000000E+000	0.0000000E+000	0.0000000E+000	1.1180815E+002	0.0000000E+000	0.0000000E+000	0.0000000E+000	-1.1180815E+002	0.0000000E+000	0.0000000E+000	0.0000000E+000	2.1808149E+001	0.0000000E+000	0.0000000E+000	0.0000000E+000	-2.1808149E+001	-2.4991474E+000	-2.1808149E+001	-4.774179184821357E-004
1.4919834E+005	1.9632229E-001	-5.3996634E-002	2.0361257E-001	1.5378424E+001	2.563474068389041E+000	-3.9330576E-004	-1.3571709E+000	-1.9755566E+001	-1.3893564E+000	1.000000000000000E+000	9	1.7575134E-003	8.6316550E-003	0	-7.825459208510324E-004	4.7354412E+000	-1.3024395E+000	4.9112883E+000	-1.5378424E+001	-1.3893566E+003	5.0514561E+003	5.2390381E+003	-1.0537843E+002	0.0000000E+000	0.0000000E+000	0.0000000E+000	1.0537843E+002	0.0000000E+000	0.0000000E+000	0.0000000E+000	-1.0537843E+002	0.0000000E+000	0.0000000E+000	0.0000000E+000	1.5378424E+001	0.0000000E+000	0.0000000E+000	0.0000000E+000	-1.5378424E+001	-3.6358247E+000	-1.5378424E+001	-3.051280023688967E-004
1.1129565E+005	1.9994578E-001	-3.8678449E-002	2.0365249E-001	1.0948336E+001	3.387477760872571E+000	-4.2046286E-004	-1.4738729E+000	-3.6971996E+001	-1.3336183E+000	1.000000000000000E+000	9	4.6251263E-003	2.2710875E-002	0	-1.137384822853531E-003	4.8209519E+000	-9.3258756E-001	4.9103255E+000	-1.0948336E+001	-1.3336180E+003	6.8940547E+003	7.0218608E+003	-1.0094833E+002	0.0000000E+000	0.0000000E+000	0.0000000E+000	1.0094833E+002	0.0000000E+000	0.0000000E+000	0.0000000E+000	-1.0094833E+002	0.0000000E+000	0.0000000E+000	0.0000000E+000	1.0948336E+001	0.0000000E+000	0.0000000E+000	0.0000000E+000	-1.0948336E+001	-5.1694365E+000	-1.0948336E+001	-3.548389020024981E-004
8.3024047E+004	2.0119846E-001	-2.7014157E-002	2.0300390E-001	7.6471539E+000	4.348481566499686E+000	-4.4437643E-004	-1.6037385E+000	-7.0961830E+001	-1.2566053E+000	1.000000000000000E+000	9	2.2540065E-002	1.1103267E-001	0	-1.558111439736353E-003	4.8822036E+000	-6.5551507E-001	4.9260139E+000	-7.6471539E+000	-1.2566057E+003	9.3590576E+003	9.4430410E+003	-9.7647156E+001	0.0000000E+000	0.0000000E+000	0.0000000E+000	9.7647156E+001	0.0000000E+000	0.0000000E+000	0.0000000E+000	-9.7647156E+001	0.0000000E+000	0.0000000E+000	0.0000000E+000	7.6471539E+000	0.0000000E+000	0.0000000E+000	0.0000000E+000	-7.6471539E+000	-7.4478898E+000	-7.6471539E+000	-4.207266168828226E-004
6.1934008E+004	2.0200416E-001	-1.8813480E-002	2.0287836E-001	5.3208432E+000	6.405486117553664E+000	-3.5710837E-004	-1.2625525E+000	-1.3659091E+002	-1.1745963E+000	1.000000000000000E+000	9	1.1539333E-002	5.6878090E-002	0	-1.891084998703303E-003	4.9078226E+000	-4.5708576E-001	4.9290619E+000	-5.3208432E+000	-1.1745970E+003	1.2611880E+004	1.2666459E+004	-9.5320847E+001	0.0000000E+000	0.0000000E+000	0.0000000E+000	9.5320847E+001	0.0000000E+000	0.0000000E+000	0.0000000E+000	-9.5320847E+001	0.0000000E+000	0.0000000E+000	0.0000000E+000	5.3208432E+000	0.0000000E+000	0.0000000E+000	0.0000000E+000	-5.3208432E+000	-1.0737204E+001	-5.3208432E+000	-3.329735589669501E-004
4.6206945E+004	2.0313510E-001	-1.2376929E-002	2.0351182E-001	3.4866951E+000	7.503485049674055E+000	-3.2393081E-004	-1.1328340E+000	-2.7829150E+002	-1.0293107E+000	1.000000000000000E+000	9	9.4470652E-003	4.6420228E-002	0	-2.263137129531552E-003	4.9046240E+000	-2.9883650E-001	4.9137197E+000	-3.4866951E+000	-1.0293105E+003	1.6893461E+004	1.6924789E+004	-9.3486694E+001	0.0000000E+000	0.0000000E+000	0.0000000E+000	9.3486694E+001	0.0000000E+000	0.0000000E+000	0.0000000E+000	-9.3486694E+001	0.0000000E+000	0.0000000E+000	0.0000000E+000	3.4866951E+000	0.0000000E+000	0.0000000E+000	0.0000000E+000	-3.4866951E+000	-1.6412399E+001	-3.4866951E+000	-3.720521308282492E-004
3.4469641E+004	2.0424795E-001	-7.6407581E-003	2.0439082E-001	2.1423917E+000	8.327481862186687E+000	-3.0728610E-004	-1.0666896E+000	-6.0429211E+002	-8.4449488E-001	1.000000000000000E+000	9	9.3480432E-003	4.5736119E-002	0	-2.588312436470141E-003	4.8891678E+000	-1.8289998E-001	4.8925877E+000	-2.1423917E+000	-8.4449615E+002	2.2574508E+004	2.2590299E+004	-9.2142395E+001	0.0000000E+000	0.0000000E+000	0.0000000E+000	9.2142395E+001	0.0000000E+000	0.0000000E+000	0.0000000E+000	-9.2142395E+001	0.0000000E+000	0.0000000E+000	0.0000000E+000	2.1423917E+000	0.0000000E+000	0.0000000E+000	0.0000000E+000	-2.1423917E+000	-2.6731373E+001	-2.1423917E+000	-3.251753069385887E-004
2.5710734E+004	2.0543130E-001	-4.1500744E-003	2.0547321E-001	1.1573184E+000	9.151495767961023E+000	-3.0698784E-004	-1.0594642E+000	-1.4915909E+003	-6.0848671E-001	1.000000000000000E+000	9	9.9427290E-003	4.8389416E-002	0	-2.804495784074585E-003	4.8658218E+000	-9.8298177E-002	4.8668146E+000	-1.1573184E+000	-6.0848657E+002	3.0120475E+004	3.0126621E+004	-9.1157318E+001	0.0000000E+000	0.0000000E+000	0.0000000E+000	9.1157318E+001	0.0000000E+000	0.0000000E+000	0.0000000E+000	-9.1157318E+001	0.0000000E+000	0.0000000E+000	0.0000000E+000	1.1573184E+000	0.0000000E+000	0.0000000E+000	0.0000000E+000	-1.1573184E+000	-4.9500629E+001	-1.1573184E+000	-2.161833476044444E-004
1.9178668E+004	2.0663291E-001	-1.5346833E-003	2.0663860E-001	4.2553368E-001	9.975494767102646E+000	-2.9897300E-004	-1.0549952E+000	-5.4073306E+003	-2.9826173E-001	1.000000000000000E+000	9	1.0301041E-002	4.9850516E-002	0	-3.080980379774959E-003	4.8392334E+000	-3.5941474E-002	4.8393669E+000	-4.2553368E-001	-2.9826413E+002	4.0158566E+004	4.0159676E+004	-9.0425537E+001	0.0000000E+000	0.0000000E+000	0.0000000E+000	9.0425537E+001	0.0000000E+000	0.0000000E+000	0.0000000E+000	-9.0425537E+001	0.0000000E+000	0.0000000E+000	0.0000000E+000	4.2553368E-001	0.0000000E+000	0.0000000E+000	0.0000000E+000	-4.2553368E-001	-1.3464206E+002	-4.2553368E-001	-2.764845957003740E-004
1.4307455E+004	2.0791334E-001	2.2036069E-004	2.0791346E-001	-6.0725939E-002	1.079947976625408E+001	-2.9746324E-004	-1.0192040E+000	5.0480500E+004	5.6705691E-002	1.000000000000000E+000	9	1.0459188E-002	5.0305489E-002	0	-3.351593222987321E-003	4.8096905E+000	5.0976370E-003	4.8096933E+000	6.0725939E-002	5.6702339E+001	5.3502598E+004	5.3502629E+004	-8.9939278E+001	0.0000000E+000	0.0000000E+000	0.0000000E+000	8.9939278E+001	0.0000000E+000	0.0000000E+000	0.0000000E+000	-8.9939278E+001	0.0000000E+000	0.0000000E+000	0.0000000E+000	-6.0725939E-002	0.0000000E+000	0.0000000E+000	0.0000000E+000	6.0725939E-002	9.4351373E+002	6.0725939E-002	-2.706128432123614E-004
1.0670281E+004	2.0903651E-001	1.5032105E-003	2.0904192E-001	-4.1201478E-001	1.162349127206835E+001	-2.9252388E-004	-1.0402465E+000	9.9225771E+003	5.1309443E-001	1.000000000000000E+000	9	1.0487346E-002	5.0168626E-002	0	-3.683130375750363E-003	4.7836061E+000	3.4399573E-002	4.7837296E+000	4.1201478E-001	5.1309821E+002	7.1350930E+004	7.1352773E+004	-8.9587982E+001	0.0000000E+000	0.0000000E+000	0.0000000E+000	8.9587982E+001	0.0000000E+000	0.0000000E+000	0.0000000E+000	-8.9587982E+001	0.0000000E+000	0.0000000E+000	0.0000000E+000	-4.1201478E-001	0.0000000E+000	0.0000000E+000	0.0000000E+000	4.1201478E-001	1.3906004E+002	4.1201478E-001	-3.315371527630420E-004
7.9597627E+003	2.1020314E-001	2.3123876E-003	2.1021587E-001	-6.3026983E-001	1.255973560990242E+001	-2.9619577E-004	-1.0081985E+000	8.6468789E+003	1.0462842E+000	1.000000000000000E+000	9	1.0397591E-002	4.9461495E-002	0	-3.929938212409409E-003	4.7567267E+000	5.2327458E-002	4.7570148E+000	6.3026983E-001	1.0462877E+003	9.5110453E+004	9.5116211E+004	-8.9369728E+001	0.0000000E+000	0.0000000E+000	0.0000000E+000	8.9369728E+001	0.0000000E+000	0.0000000E+000	0.0000000E+000	-8.9369728E+001	0.0000000E+000	0.0000000E+000	0.0000000E+000	-6.3026983E-001	0.0000000E+000	0.0000000E+000	0.0000000E+000	6.3026983E-001	9.0903076E+001	6.3026983E-001	-2.468078366590458E-004
5.9375000E+003	2.1113841E-001	2.8487267E-003	2.1115763E-001	-7.7300060E-001	1.374054371929378E+001	-2.9809694E-004	-9.7384137E-001	9.4094814E+003	1.7125912E+000	1.000000000000000E+000	9	1.0299655E-002	4.8777089E-002	0	-4.224770191038984E-003	4.7353673E+000	6.3890636E-002	4.7357984E+000	7.7300060E-001	1.7125958E+003	1.2693173E+005	1.2694328E+005	-8.9226997E+001	0.0000000E+000	0.0000000E+000	0.0000000E+000	8.9226997E+001	0.0000000E+000	0.0000000E+000	0.0000000E+000	-8.9226997E+001	0.0000000E+000	0.0000000E+000	0.0000000E+000	-7.7300060E-001	0.0000000E+000	0.0000000E+000	0.0000000E+000	7.7300060E-001	7.4116768E+001	7.7300060E-001	-2.948319786295756E-004
4.4314180E+003	2.1214698E-001	3.1755664E-003	2.1217075E-001	-8.5757983E-001	1.507867004955187E+001	-2.8780816E-004	-9.2702627E-001	1.1309834E+004	2.5335391E+000	1.000000000000000E+000	9	1.0161668E-002	4.7893822E-002	0	-4.631223940002422E-003	4.7126570E+000	7.0542395E-002	4.7131848E+000	8.5757983E-001	2.5335457E+003	1.6925566E+005	1.6927463E+005	-8.9142418E+001	0.0000000E+000	0.0000000E+000	0.0000000E+000	8.9142418E+001	0.0000000E+000	0.0000000E+000	0.0000000E+000	-8.9142418E+001	0.0000000E+000	0.0000000E+000	0.0000000E+000	-8.5757983E-001	0.0000000E+000	0.0000000E+000	0.0000000E+000	8.5757983E-001	6.6806030E+001	8.5757983E-001	-4.064537489634375E-004
3.3060581E+003	2.1301790E-001	3.2616484E-003	2.1304287E-001	-8.7722242E-001	1.619470644922694E+001	-2.8944839E-004	-9.2678416E-001	1.4759529E+004	3.4594955E+000	1.000000000000000E+000	9	1.0750405E-002	5.0461233E-002	0	-4.953592500137372E-003	4.6933408E+000	7.1862631E-002	4.6938910E+000	8.7722242E-001	3.4594866E+003	2.2593928E+005	2.2596577E+005	-8.9122780E+001	0.0000000E+000	0.0000000E+000	0.0000000E+000	8.9122780E+001	0.0000000E+000	0.0000000E+000	0.0000000E+000	-8.9122780E+001	0.0000000E+000	0.0000000E+000	0.0000000E+000	-8.7722242E-001	0.0000000E+000	0.0000000E+000	0.0000000E+000	8.7722242E-001	6.5309891E+001	8.7722242E-001	-3.223685601349505E-004
2.4657891E+003	2.1388246E-001	3.2277883E-003	2.1390681E-001	-8.6460859E-001	1.753171195273171E+001	-2.8719308E-004	-9.0387952E-001	1.9996738E+004	4.5532346E+000	1.000000000000000E+000	9	1.0186892E-002	4.7623038E-002	0	-5.285172948982153E-003	4.6744008E+000	7.0543304E-002	4.6749330E+000	8.6460859E-001	4.5532358E+003	3.0171034E+005	3.0174469E+005	-8.9135391E+001	0.0000000E+000	0.0000000E+000	0.0000000E+000	8.9135391E+001	0.0000000E+000	0.0000000E+000	0.0000000E+000	-8.9135391E+001	0.0000000E+000	0.0000000E+000	0.0000000E+000	-8.6460859E-001	0.0000000E+000	0.0000000E+000	0.0000000E+000	8.6460859E-001	6.6262856E+001	8.6460859E-001	-3.315804488447805E-004
1.8382352E+003	2.1466579E-001	3.2827710E-003	2.1469088E-001	-8.7612599E-001	1.864796144573484E+001	-2.8335341E-004	-9.1343236E-001	2.6374150E+004	6.1664104E+000	1.000000000000000E+000	9	1.0373786E-002	4.8319642E-002	0	-5.533277309416483E-003	4.6573153E+000	7.1221881E-002	4.6578598E+000	8.7612599E-001	6.1664331E+003	4.0323169E+005	4.0327884E+005	-8.9123871E+001	0.0000000E+000	0.0000000E+000	0.0000000E+000	8.9123871E+001	0.0000000E+000	0.0000000E+000	0.0000000E+000	-8.9123871E+001	0.0000000E+000	0.0000000E+000	0.0000000E+000	-8.7612599E-001	0.0000000E+000	0.0000000E+000	0.0000000E+000	8.7612599E-001	6.5391640E+001	8.7612599E-001	-2.481043604343298E-004
1.3721958E+003	2.1527608E-001	3.0687598E-003	2.1529795E-001	-8.1669587E-001	1.976343139199889E+001	-2.9645671E-004	-9.4367415E-001	3.7795590E+004	7.6786900E+000	1.000000000000000E+000	9	1.0474999E-002	4.8653502E-002	0	-5.793909442325226E-003	4.6442537E+000	6.6203825E-002	4.6447258E+000	8.1669587E-001	7.6786929E+003	5.3866650E+005	5.3872125E+005	-8.9183304E+001	0.0000000E+000	0.0000000E+000	0.0000000E+000	8.9183304E+001	0.0000000E+000	0.0000000E+000	0.0000000E+000	-8.9183304E+001	0.0000000E+000	0.0000000E+000	0.0000000E+000	-8.1669587E-001	0.0000000E+000	0.0000000E+000	0.0000000E+000	8.1669587E-001	7.0150841E+001	8.1669587E-001	-2.606321329087433E-004
1.0240171E+003	2.1597055E-001	2.9261047E-003	2.1599036E-001	-7.7623171E-001	2.087893061837531E+001	-2.9472326E-004	-9.3173754E-001	5.3115719E+004	9.7484150E+000	1.000000000000000E+000	9	1.0535591E-002	4.8778061E-002	0	-6.122842390078223E-003	4.6294112E+000	6.2722169E-002	4.6298361E+000	7.7623171E-001	9.7483916E+003	7.1951306E+005	7.1957913E+005	-8.9223770E+001	0.0000000E+000	0.0000000E+000	0.0000000E+000	8.9223770E+001	0.0000000E+000	0.0000000E+000	0.0000000E+000	-8.9223770E+001	0.0000000E+000	0.0000000E+000	0.0000000E+000	-7.7623171E-001	0.0000000E+000	0.0000000E+000	0.0000000E+000	7.7623171E-001	7.3808212E+001	7.7623171E-001	-3.289329477529973E-004
7.6329034E+002	2.1651229E-001	2.8147076E-003	2.1653059E-001	-7.4481583E-001	2.199819808485336E+001	-2.9241203E-004	-9.2857188E-001	7.4079336E+004	1.2517717E+001	1.000000000000000E+000	9	1.0566549E-002	4.8799336E-002	0	-6.379285830574731E-003	4.6178951E+000	6.0033653E-002	4.6182852E+000	7.4481583E-001	1.2517653E+004	9.6288500E+005	9.6296638E+005	-8.9255188E+001	0.0000000E+000	0.0000000E+000	0.0000000E+000	8.9255188E+001	0.0000000E+000	0.0000000E+000	0.0000000E+000	-8.9255188E+001	0.0000000E+000	0.0000000E+000	0.0000000E+000	-7.4481583E-001	0.0000000E+000	0.0000000E+000	0.0000000E+000	7.4481583E-001	7.6921768E+001	7.4481583E-001	-2.564434404965076E-004
5.6945331E+002	2.1691759E-001	2.5349858E-003	2.1693240E-001	-6.6955090E-001	2.311394080452737E+001	-2.9317621E-004	-9.2436343E-001	1.1025200E+005	1.5055275E+001	1.000000000000000E+000	9	1.0581572E-002	4.8778199E-002	0	-6.634996390370031E-003	4.6094160E+000	5.3867478E-002	4.6097307E+000	6.6955090E-001	1.5055209E+004	1.2882730E+006	1.2883610E+006	-8.9330452E+001	0.0000000E+000	0.0000000E+000	0.0000000E+000	8.9330452E+001	0.0000000E+000	0.0000000E+000	0.0000000E+000	-8.9330452E+001	0.0000000E+000	0.0000000E+000	0.0000000E+000	-6.6955090E-001	0.0000000E+000	0.0000000E+000	0.0000000E+000	6.6955090E-001	8.5569550E+001	6.6955090E-001	-2.557105597953005E-004
4.2513608E+002	2.1722813E-001	2.3368651E-003	2.1724071E-001	-6.1634439E-001	2.422969747087336E+001	-2.9608392E-004	-9.2827398E-001	1.6019853E+005	1.8537169E+001	1.000000000000000E+000	9	1.0586484E-002	4.8731588E-002	0	-6.899345178699328E-003	4.6029224E+000	4.9516648E-002	4.6031890E+000	6.1634439E-001	1.8537057E+004	1.7231609E+006	1.7232606E+006	-8.9383659E+001	0.0000000E+000	0.0000000E+000	0.0000000E+000	8.9383659E+001	0.0000000E+000	0.0000000E+000	0.0000000E+000	-8.9383659E+001	0.0000000E+000	0.0000000E+000	0.0000000E+000	-6.1634439E-001	0.0000000E+000	0.0000000E+000	0.0000000E+000	6.1634439E-001	9.2957069E+001	6.1634439E-001	-2.643487883292970E-004
3.1713113E+002	2.1766560E-001	2.4740105E-003	2.1767966E-001	-6.5120184E-001	2.534039829691756E+001	-2.9498420E-004	-9.5656037E-001	2.0285222E+005	2.6202763E+001	1.000000000000000E+000	9	1.0594115E-002	4.8668370E-002	0	-7.219136344925811E-003	4.5936098E+000	5.2211452E-002	4.5939064E+000	6.5120184E-001	2.6202658E+004	2.3053418E+006	2.3054908E+006	-8.9348801E+001	0.0000000E+000	0.0000000E+000	0.0000000E+000	8.9348801E+001	0.0000000E+000	0.0000000E+000	0.0000000E+000	-8.9348801E+001	0.0000000E+000	0.0000000E+000	0.0000000E+000	-6.5120184E-001	0.0000000E+000	0.0000000E+000	0.0000000E+000	6.5120184E-001	8.7980873E+001	6.5120184E-001	-3.197911662264829E-004
2.3658990E+002	2.1800111E-001	2.5374230E-003	2.1801588E-001	-6.6686386E-001	2.645040272295591E+001	-2.9997950E-004	-9.3870211E-001	2.6511303E+005	3.5912079E+001	1.000000000000000E+000	9	1.0596097E-002	4.8602406E-002	0	-7.540753300185419E-003	4.5865111E+000	5.3384680E-002	4.5868220E+000	6.6686386E-001	3.5912008E+004	3.0853640E+006	3.0855730E+006	-8.9333138E+001	0.0000000E+000	0.0000000E+000	0.0000000E+000	8.9333138E+001	0.0000000E+000	0.0000000E+000	0.0000000E+000	-8.9333138E+001	0.0000000E+000	0.0000000E+000	0.0000000E+000	-6.6686386E-001	0.0000000E+000	0.0000000E+000	0.0000000E+000	6.6686386E-001	8.5914375E+001	6.6686386E-001	-3.216169552596078E-004
1.7641125E+002	2.1829103E-001	2.5760739E-003	2.1830623E-001	-6.7612177E-001	2.755914410899277E+001	-2.8680166E-004	-9.0291113E-001	3.5021563E+005	4.8766312E+001	1.000000000000000E+000	9	1.0595355E-002	4.8534371E-002	0	-7.784499152252451E-003	4.5804024E+000	5.4053783E-002	4.5807214E+000	6.7612177E-001	4.8766516E+004	4.1323538E+006	4.1326415E+006	-8.9323875E+001	0.0000000E+000	0.0000000E+000	0.0000000E+000	8.9323875E+001	0.0000000E+000	0.0000000E+000	0.0000000E+000	-8.9323875E+001	0.0000000E+000	0.0000000E+000	0.0000000E+000	-6.7612177E-001	0.0000000E+000	0.0000000E+000	0.0000000E+000	6.7612177E-001	8.4737877E+001	6.7612177E-001	-2.437458520670316E-004
1.3155768E+002	2.1861321E-001	2.6979935E-003	2.1862985E-001	-7.0707434E-001	2.866338064140291E+001	-2.8607473E-004	-9.1546220E-001	4.4839734E+005	6.8285095E+001	1.000000000000000E+000	9	1.0594029E-002	4.8456460E-002	0	-8.088075171973763E-003	4.5735927E+000	5.6444544E-002	4.5739408E+000	7.0707434E-001	6.8285352E+004	5.5330090E+006	5.5334305E+006	-8.9292923E+001	0.0000000E+000	0.0000000E+000	0.0000000E+000	8.9292923E+001	0.0000000E+000	0.0000000E+000	0.0000000E+000	-8.9292923E+001	0.0000000E+000	0.0000000E+000	0.0000000E+000	-7.0707434E-001	0.0000000E+000	0.0000000E+000	0.0000000E+000	7.0707434E-001	8.1028069E+001	7.0707434E-001	-3.035760197213130E-004
9.8146988E+001	2.1907695E-001	3.0210451E-003	2.1909778E-001	-7.9005194E-001	2.979855240197503E+001	-2.8948567E-004	-9.2330199E-001	5.3676713E+005	1.0205268E+002	1.000000000000000E+000	9	1.0597236E-002	4.8367612E-002	0	-8.408237075167966E-003	4.5637383E+000	6.2933415E-002	4.5641723E+000	7.9005194E-001	1.0205299E+005	7.4005485E+006	7.4012520E+006	-8.9209946E+001	0.0000000E+000	0.0000000E+000	0.0000000E+000	8.9209946E+001	0.0000000E+000	0.0000000E+000	0.0000000E+000	-8.9209946E+001	0.0000000E+000	0.0000000E+000	0.0000000E+000	-7.9005194E-001	0.0000000E+000	0.0000000E+000	0.0000000E+000	7.9005194E-001	7.2516937E+001	7.9005194E-001	-3.201619031942028E-004
7.3242188E+001	2.1954995E-001	3.4076166E-003	2.1957640E-001	-8.8921160E-001	3.093857922943425E+001	-2.6909451E-004	-8.7842351E-001	6.3768775E+005	1.5358125E+002	1.000000000000000E+000	9	1.0597683E-002	4.8264213E-002	0	-8.650009909961993E-003	4.5536752E+000	7.0677206E-002	4.5542235E+000	8.8921160E-001	1.5358158E+005	9.8951140E+006	9.8963060E+006	-8.9110786E+001	0.0000000E+000	0.0000000E+000	0.0000000E+000	8.9110786E+001	0.0000000E+000	0.0000000E+000	0.0000000E+000	-8.9110786E+001	0.0000000E+000	0.0000000E+000	0.0000000E+000	-8.8921160E-001	0.0000000E+000	0.0000000E+000	0.0000000E+000	8.8921160E-001	6.4429184E+001	8.8921160E-001	-2.417728347940268E-004
5.4598160E+001	2.2009933E-001	3.6921531E-003	2.2013029E-001	-9.6104318E-001	3.206224784287042E+001	-2.9504014E-004	-9.1255718E-001	7.8951869E+005	2.2210698E+002	1.000000000000000E+000	9	1.0596165E-002	4.8135877E-002	0	-8.984081208046680E-003	4.5421252E+000	7.6193884E-002	4.5427642E+000	9.6104318E-001	2.2210725E+005	1.3240403E+007	1.3242266E+007	-8.9038956E+001	0.0000000E+000	0.0000000E+000	0.0000000E+000	8.9038956E+001	0.0000000E+000	0.0000000E+000	0.0000000E+000	-8.9038956E+001	0.0000000E+000	0.0000000E+000	0.0000000E+000	-9.6104318E-001	0.0000000E+000	0.0000000E+000	0.0000000E+000	9.6104318E-001	5.9612732E+001	9.6104318E-001	-3.340712980846872E-004
4.0743153E+001	2.2057545E-001	4.1189301E-003	2.2061391E-001	-1.0697922E+000	3.316109762838460E+001	-2.9569250E-004	-9.1387939E-001	9.4837719E+005	3.3058575E+002	1.000000000000000E+000	9	1.0591555E-002	4.8009463E-002	0	-9.256501537501812E-003	4.5320158E+000	8.4628895E-002	4.5328059E+000	1.0697922E+000	3.3058622E+005	1.7703408E+007	1.7706494E+007	-8.8930206E+001	0.0000000E+000	0.0000000E+000	0.0000000E+000	8.8930206E+001	0.0000000E+000	0.0000000E+000	0.0000000E+000	-8.8930206E+001	0.0000000E+000	0.0000000E+000	0.0000000E+000	-1.0697922E+000	0.0000000E+000	0.0000000E+000	0.0000000E+000	1.0697922E+000	5.3551640E+001	1.0697922E+000	-2.724203294551322E-004
3.0398830E+001	2.2134480E-001	4.7391644E-003	2.2139552E-001	-1.2265599E+000	3.426510682751541E+001	-2.9628896E-004	-9.2700773E-001	1.1047436E+006	5.0620609E+002	1.000000000000000E+000	9	1.0597767E-002	4.7868028E-002	0	-9.432449234567583E-003	4.5157685E+000	9.6686117E-002	4.5168033E+000	1.2265599E+000	5.0620722E+005	2.3642584E+007	2.3648002E+007	-8.8773438E+001	0.0000000E+000	0.0000000E+000	0.0000000E+000	8.8773438E+001	0.0000000E+000	0.0000000E+000	0.0000000E+000	-8.8773438E+001	0.0000000E+000	0.0000000E+000	0.0000000E+000	-1.2265599E+000	0.0000000E+000	0.0000000E+000	0.0000000E+000	1.2265599E+000	4.6705448E+001	1.2265599E+000	-1.759476970657706E-004
2.2658066E+001	2.2204763E-001	5.3205602E-003	2.2211136E-001	-1.3726214E+000	3.548345181866898E+001	-2.8647546E-004	-9.1536915E-001	1.3202006E+006	7.5755316E+002	1.000000000000000E+000	9	1.0595133E-002	4.7701895E-002	0	-9.910311959313021E-003	4.5009542E+000	1.0784892E-001	4.5022459E+000	1.3726214E+000	7.5755219E+005	3.1615634E+007	3.1624708E+007	-8.8627380E+001	0.0000000E+000	0.0000000E+000	0.0000000E+000	8.8627380E+001	0.0000000E+000	0.0000000E+000	0.0000000E+000	-8.8627380E+001	0.0000000E+000	0.0000000E+000	0.0000000E+000	-1.3726214E+000	0.0000000E+000	0.0000000E+000	0.0000000E+000	1.3726214E+000	4.1733883E+001	1.3726214E+000	-4.778627247454380E-004
1.6910175E+001	2.2297475E-001	6.0894685E-003	2.2305788E-001	-1.5643661E+000	3.648615386630991E+001	-2.9034307E-004	-9.5233321E-001	1.5455841E+006	1.1519039E+003	1.000000000000000E+000	9	1.0597673E-002	4.7510866E-002	0	-1.020011820351436E-002	4.4814706E+000	1.2238953E-001	4.4831414E+000	1.5643661E+000	1.1519061E+006	4.2178636E+007	4.2194364E+007	-8.8435631E+001	0.0000000E+000	0.0000000E+000	0.0000000E+000	8.8435631E+001	0.0000000E+000	0.0000000E+000	0.0000000E+000	-8.8435631E+001	0.0000000E+000	0.0000000E+000	0.0000000E+000	-1.5643661E+000	0.0000000E+000	0.0000000E+000	0.0000000E+000	1.5643661E+000	3.6616455E+001	1.5643661E+000	-2.898062442013381E-004
1.2627966E+001	2.2398022E-001	6.9671278E-003	2.2408855E-001	-1.7816678E+000	3.779135272829444E+001	-2.8368892E-004	-9.0233392E-001	1.8089766E+006	1.7486431E+003	1.000000000000000E+000	9	1.0595424E-002	4.7282308E-002	0	-1.022753259294765E-002	4.4603643E+000	1.3874407E-001	4.4625216E+000	1.7816678E+000	1.7486449E+006	5.6215624E+007	5.6242816E+007	-8.8218330E+001	0.0000000E+000	0.0000000E+000	0.0000000E+000	8.8218330E+001	0.0000000E+000	0.0000000E+000	0.0000000E+000	-8.8218330E+001	0.0000000E+000	0.0000000E+000	0.0000000E+000	-1.7816678E+000	0.0000000E+000	0.0000000E+000	0.0000000E+000	1.7816678E+000	3.2148144E+001	1.7816678E+000	-2.741438943328761E-005
9.4126539E+000	2.2504903E-001	7.9336492E-003	2.2518884E-001	-2.0190110E+000	3.896722947750823E+001	-2.8665253E-004	-8.9155197E-001	2.1312533E+006	2.6453755E+003	1.000000000000000E+000	9	1.0601316E-002	4.7077447E-002	0	-1.053787784758184E-002	4.4379611E+000	1.5645136E-001	4.4407177E+000	2.0190110E+000	2.6453775E+006	7.5039768E+007	7.5086384E+007	-8.7980988E+001	0.0000000E+000	0.0000000E+000	0.0000000E+000	8.7980988E+001	0.0000000E+000	0.0000000E+000	0.0000000E+000	-8.7980988E+001	0.0000000E+000	0.0000000E+000	0.0000000E+000	-2.0190110E+000	0.0000000E+000	0.0000000E+000	0.0000000E+000	2.0190110E+000	2.8366396E+001	2.0190110E+000	-3.103452546341957E-004
7.0256276E+000	2.2671287E-001	9.0251490E-003	2.2689244E-001	-2.2796679E+000	3.980304650389007E+001	-3.1604641E-004	-9.8885053E-001	2.5100398E+006	3.9714519E+003	1.000000000000000E+000	9	1.0597024E-002	4.6705056E-002	0	-1.068229806090643E-002	4.4038868E+000	1.7531309E-001	4.4073749E+000	2.2796679E+000	3.9714568E+006	9.9763368E+007	9.9842384E+007	-8.7720329E+001	0.0000000E+000	0.0000000E+000	0.0000000E+000	8.7720329E+001	0.0000000E+000	0.0000000E+000	0.0000000E+000	-8.7720329E+001	0.0000000E+000	0.0000000E+000	0.0000000E+000	-2.2796679E+000	0.0000000E+000	0.0000000E+000	0.0000000E+000	2.2796679E+000	2.5120125E+001	2.2796679E+000	-1.444202133245882E-004
5.2362599E+000	2.2825539E-001	1.0173129E-002	2.2848198E-001	-2.5519304E+000	4.087572663484025E+001	-2.9449959E-004	-9.1095579E-001	2.9877510E+006	5.9231074E+003	1.000000000000000E+000	9	1.0594616E-002	4.6369590E-002	0	-1.163060478270499E-002	4.3723722E+000	1.9487254E-001	4.3767128E+000	2.5519304E+000	5.9231140E+006	1.3289728E+008	1.3302921E+008	-8.7448067E+001	0.0000000E+000	0.0000000E+000	0.0000000E+000	8.7448067E+001	0.0000000E+000	0.0000000E+000	0.0000000E+000	-8.7448067E+001	0.0000000E+000	0.0000000E+000	0.0000000E+000	-2.5519304E+000	0.0000000E+000	0.0000000E+000	0.0000000E+000	2.5519304E+000	2.2437088E+001	2.5519304E+000	-9.483067217985579E-004
3.9062498E+000	2.3008291E-001	1.1396131E-002	2.3036496E-001	-2.8355737E+000	4.227280016786244E+001	-2.8367029E-004	-9.0192425E-001	3.5752193E+006	8.7495293E+003	1.000000000000000E+000	9	1.0595597E-002	4.5994829E-002	0	-1.114715908098811E-002	4.3356233E+000	2.1474576E-001	4.3409381E+000	2.8355737E+000	8.7495220E+006	1.7664918E+008	1.7686573E+008	-8.7164429E+001	0.0000000E+000	0.0000000E+000	0.0000000E+000	8.7164429E+001	0.0000000E+000	0.0000000E+000	0.0000000E+000	-8.7164429E+001	0.0000000E+000	0.0000000E+000	0.0000000E+000	-2.8355737E+000	0.0000000E+000	0.0000000E+000	0.0000000E+000	2.8355737E+000	2.0189564E+001	2.8355737E+000	4.834457017168815E-004
2.9129384E+000	2.3214638E-001	1.2767928E-002	2.3249723E-001	-3.1480658E+000	4.410916785502923E+001	-2.8247086E-004	-8.8037139E-001	4.2792575E+006	1.2905466E+004	1.000000000000000E+000	9	1.0595283E-002	4.5571655E-002	0	-1.277329838424352E-002	4.2946358E+000	2.3620270E-001	4.3011265E+000	3.1480658E+000	1.2905458E+007	2.3464712E+008	2.3500174E+008	-8.6851936E+001	0.0000000E+000	0.0000000E+000	0.0000000E+000	8.6851936E+001	0.0000000E+000	0.0000000E+000	0.0000000E+000	-8.6851936E+001	0.0000000E+000	0.0000000E+000	0.0000000E+000	-3.1480658E+000	0.0000000E+000	0.0000000E+000	0.0000000E+000	3.1480658E+000	1.8181993E+001	3.1480658E+000	-1.626139303255413E-003
2.1749718E+000	2.3459840E-001	1.4199340E-002	2.3502772E-001	-3.4636679E+000	4.653672586372704E+001	-2.7699748E-004	-8.7435949E-001	5.1534535E+006	1.8810334E+004	1.000000000000000E+000	9	1.0596930E-002	4.5088001E-002	0	-1.280877296348899E-002	4.2470450E+000	2.5705734E-001	4.2548175E+000	3.4636679E+000	1.8810338E+007	3.1078022E+008	3.1134896E+008	-8.6536331E+001	0.0000000E+000	0.0000000E+000	0.0000000E+000	8.6536331E+001	0.0000000E+000	0.0000000E+000	0.0000000E+000	-8.6536331E+001	0.0000000E+000	0.0000000E+000	0.0000000E+000	-3.4636679E+000	0.0000000E+000	0.0000000E+000	0.0000000E+000	3.4636679E+000	1.6521782E+001	3.4636679E+000	-3.547457924547165E-005
1.6208506E+000	2.3718180E-001	1.5765427E-002	2.3770519E-001	-3.8028448E+000	4.976401356366114E+001	-2.7616959E-004	-8.5961074E-001	6.2283265E+006	2.7397160E+004	1.000000000000000E+000	9	1.0595931E-002	4.4575933E-002	0	-1.220291153196639E-002	4.1976290E+000	2.7901557E-001	4.2068920E+000	3.8028448E+000	2.7397136E+007	4.1217459E+008	4.1308413E+008	-8.6197159E+001	0.0000000E+000	0.0000000E+000	0.0000000E+000	8.6197159E+001	0.0000000E+000	0.0000000E+000	0.0000000E+000	-8.6197159E+001	0.0000000E+000	0.0000000E+000	0.0000000E+000	-3.8028448E+000	0.0000000E+000	0.0000000E+000	0.0000000E+000	3.8028448E+000	1.5044426E+001	3.8028448E+000	6.058614315226050E-004
1.2104893E+000	2.4045016E-001	1.7493252E-002	2.4108565E-001	-4.1610565E+000	5.405727315423428E+001	-2.7781999E-004	-8.6118156E-001	7.5160320E+006	3.9571910E+004	1.000000000000000E+000	9	1.0597139E-002	4.3955907E-002	0	-1.370704556850478E-002	4.1369696E+000	3.0097318E-001	4.1479034E+000	4.1610565E+000	3.9571904E+007	5.4392813E+008	5.4536570E+008	-8.5838943E+001	0.0000000E+000	0.0000000E+000	0.0000000E+000	8.5838943E+001	0.0000000E+000	0.0000000E+000	0.0000000E+000	-8.5838943E+001	0.0000000E+000	0.0000000E+000	0.0000000E+000	-4.1610565E+000	0.0000000E+000	0.0000000E+000	0.0000000E+000	4.1610565E+000	1.3745310E+001	4.1610565E+000	-1.504134036538398E-003
9.0213656E-001	2.4397442E-001	1.9132100E-002	2.4472342E-001	-4.4838710E+000	6.094579582811275E+001	-2.6787521E-004	-8.0467802E-001	9.2211520E+006	5.6358500E+004	1.000000000000000E+000	10	1.0597576E-002	4.3304298E-002	0	-1.747747491743757E-002	4.0737391E+000	3.1945637E-001	4.0862455E+000	4.4838710E+000	5.6358504E+007	7.1868909E+008	7.2089549E+008	-8.5516129E+001	0.0000000E+000	0.0000000E+000	0.0000000E+000	8.5516129E+001	0.0000000E+000	0.0000000E+000	0.0000000E+000	-8.5516129E+001	0.0000000E+000	0.0000000E+000	0.0000000E+000	-4.4838710E+000	0.0000000E+000	0.0000000E+000	0.0000000E+000	4.4838710E+000	1.2752098E+001	4.4838710E+000	-3.770429348932786E-003
6.7372370E-001	2.4811572E-001	2.0547695E-002	2.4896510E-001	-4.7341452E+000	6.859390299138613E+001	-2.6221064E-004	-7.8870875E-001	1.1496753E+007	7.8311305E+004	1.000000000000000E+000	10	1.0597285E-002	4.2565342E-002	0	-2.027162803884707E-002	4.0029240E+000	3.3150202E-001	4.0166273E+000	4.7341452E+000	7.8311336E+007	9.4561792E+008	9.4885504E+008	-8.5265854E+001	0.0000000E+000	0.0000000E+000	0.0000000E+000	8.5265854E+001	0.0000000E+000	0.0000000E+000	0.0000000E+000	-8.5265854E+001	0.0000000E+000	0.0000000E+000	0.0000000E+000	-4.7341452E+000	0.0000000E+000	0.0000000E+000	0.0000000E+000	4.7341452E+000	1.2075111E+001	4.7341452E+000	-2.794153121409498E-003
5.0234693E-001	2.5257751E-001	2.1794578E-002	2.5351608E-001	-4.9317608E+000	7.882674742408562E+001	-2.7320723E-004	-8.1987983E-001	1.4536770E+007	1.0743698E+005	1.000000000000000E+000	10	1.0601544E-002	4.1818034E-002	0	-2.095384370378829E-002	3.9299197E+000	3.3910754E-001	3.9445231E+000	4.9317608E+000	1.0743703E+008	1.2450880E+009	1.2497147E+009	-8.5068237E+001	0.0000000E+000	0.0000000E+000	0.0000000E+000	8.5068237E+001	0.0000000E+000	0.0000000E+000	0.0000000E+000	-8.5068237E+001	0.0000000E+000	0.0000000E+000	0.0000000E+000	-4.9317608E+000	0.0000000E+000	0.0000000E+000	0.0000000E+000	4.9317608E+000	1.1589006E+001	4.9317608E+000	-6.822156649412235E-004
3.7502402E-001	2.5746951E-001	2.2318048E-002	2.5843498E-001	-4.9541469E+000	9.250702378051938E+001	-2.7152660E-004	-8.2951730E-001	1.9015372E+007	1.4181255E+005	1.000000000000000E+000	10	1.0598280E-002	4.1009460E-002	0	-2.027325834147498E-002	3.8549895E+000	3.3415937E-001	3.8694453E+000	4.9541469E+000	1.4181259E+008	1.6360037E+009	1.6421385E+009	-8.5045853E+001	0.0000000E+000	0.0000000E+000	0.0000000E+000	8.5045853E+001	0.0000000E+000	0.0000000E+000	0.0000000E+000	-8.5045853E+001	0.0000000E+000	0.0000000E+000	0.0000000E+000	-4.9541469E+000	0.0000000E+000	0.0000000E+000	0.0000000E+000	4.9541469E+000	1.1536381E+001	4.9541469E+000	6.805853623133157E-004
2.7983737E-001	2.6279917E-001	2.2202712E-002	2.6373541E-001	-4.8291926E+000	1.108170645168575E+002	-2.6673946E-004	-7.2601575E-001	2.5615828E+007	1.8154469E+005	1.000000000000000E+000	10	1.0597065E-002	4.0180668E-002	0	-2.085090585440232E-002	3.7782187E+000	3.1920460E-001	3.7916789E+000	4.8291926E+000	1.8154472E+008	2.1488274E+009	2.1564828E+009	-8.5170807E+001	0.0000000E+000	0.0000000E+000	0.0000000E+000	8.5170807E+001	0.0000000E+000	0.0000000E+000	0.0000000E+000	-8.5170807E+001	0.0000000E+000	0.0000000E+000	0.0000000E+000	-4.8291926E+000	0.0000000E+000	0.0000000E+000	0.0000000E+000	4.8291926E+000	1.1836355E+001	4.8291926E+000	-5.776475129273401E-004
2.0840003E-001	2.6779124E-001	2.1661304E-002	2.6866588E-001	-4.6245165E+000	1.353796180035479E+002	-2.6652243E-004	-8.1860650E-001	3.5256384E+007	2.2918277E+005	1.000000000000000E+000	10	1.0598135E-002	3.9447267E-002	0	-2.630665155959119E-002	3.7099779E+000	3.0009553E-001	3.7220953E+000	4.6245165E+000	2.2918288E+008	2.8333071E+009	2.8425613E+009	-8.5375481E+001	0.0000000E+000	0.0000000E+000	0.0000000E+000	8.5375481E+001	0.0000000E+000	0.0000000E+000	0.0000000E+000	-8.5375481E+001	0.0000000E+000	0.0000000E+000	0.0000000E+000	-4.6245165E+000	0.0000000E+000	0.0000000E+000	0.0000000E+000	4.6245165E+000	1.2362656E+001	4.6245165E+000	-5.455745705188874E-003
1.5541697E-001	2.7248442E-001	2.0504983E-002	2.7325484E-001	-4.3035078E+000	1.682934698068129E+002	-2.7367056E-004	-8.3603597E-001	4.9941584E+007	2.8121947E+005	1.000000000000000E+000	10	1.0598857E-002	3.8787443E-002	0	-3.909449482827840E-002	3.6492693E+000	2.7461463E-001	3.6595874E+000	4.3035078E+000	2.8121926E+008	3.7370391E+009	3.7476052E+009	-8.5696495E+001	0.0000000E+000	0.0000000E+000	0.0000000E+000	8.5696495E+001	0.0000000E+000	0.0000000E+000	0.0000000E+000	-8.5696495E+001	0.0000000E+000	0.0000000E+000	0.0000000E+000	-4.3035078E+000	0.0000000E+000	0.0000000E+000	0.0000000E+000	4.3035078E+000	1.3288692E+001	4.3035078E+000	-1.278784326868722E-002
1.1607092E-001	2.7677384E-001	1.8619530E-002	2.7739942E-001	-3.8486857E+000	2.123419439257123E+002	-2.8067545E-004	-8.6018986E-001	7.3642408E+007	3.3178316E+005	1.000000000000000E+000	10	1.0597864E-002	3.8204350E-002	0	-5.933118521519026E-002	3.5967803E+000	2.4196783E-001	3.6049101E+000	3.8486857E+000	3.3178323E+008	4.9318595E+009	4.9430067E+009	-8.6151314E+001	0.0000000E+000	0.0000000E+000	0.0000000E+000	8.6151314E+001	0.0000000E+000	0.0000000E+000	0.0000000E+000	-8.6151314E+001	0.0000000E+000	0.0000000E+000	0.0000000E+000	-3.8486857E+000	0.0000000E+000	0.0000000E+000	0.0000000E+000	3.8486857E+000	1.4864706E+001	3.8486857E+000	-2.023669038691186E-002
8.6509481E-002	2.8053018E-001	1.6225509E-002	2.8099903E-001	-3.3102269E+000	2.714209021451534E+002	-2.6986990E-004	-8.2388675E-001	1.1338565E+008	3.7804641E+005	1.000000000000000E+000	10	1.0597764E-002	3.7714589E-002	0	-8.366015597410127E-002	3.5527935E+000	2.0548904E-001	3.5587311E+000	3.3102269E+000	3.7804634E+008	6.5362161E+009	6.5471396E+009	-8.6689774E+001	0.0000000E+000	0.0000000E+000	0.0000000E+000	8.6689774E+001	0.0000000E+000	0.0000000E+000	0.0000000E+000	-8.6689774E+001	0.0000000E+000	0.0000000E+000	0.0000000E+000	-3.3102269E+000	0.0000000E+000	0.0000000E+000	0.0000000E+000	3.3102269E+000	1.7289454E+001	3.3102269E+000	-2.432897075891101E-002
6.4577855E-002	2.8522259E-001	1.4685541E-002	2.8560039E-001	-2.9474425E+000	3.505429369698977E+002	-2.6617022E-004	-8.2620722E-001	1.6782110E+008	4.4371988E+005	1.000000000000000E+000	10	1.0598021E-002	3.7107863E-002	0	-1.071170747148026E-001	3.4967637E+000	1.8004139E-001	3.5013957E+000	2.9474425E+000	4.4371962E+008	8.6179267E+009	8.6293422E+009	-8.7052559E+001	0.0000000E+000	0.0000000E+000	0.0000000E+000	8.7052559E+001	0.0000000E+000	0.0000000E+000	0.0000000E+000	-8.7052559E+001	0.0000000E+000	0.0000000E+000	0.0000000E+000	-2.9474425E+000	0.0000000E+000	0.0000000E+000	0.0000000E+000	2.9474425E+000	1.9422001E+001	2.9474425E+000	-2.345691874070134E-002
4.8211023E-002	2.8824040E-001	1.2456245E-002	2.8850943E-001	-2.4744847E+000	4.565044803227938E+002	-2.7467485E-004	-8.9286798E-001	2.6502488E+008	4.9401588E+005	1.000000000000000E+000	10	1.0599623E-002	3.6739260E-002	0	-1.237211444005540E-001	3.4628592E+000	1.4964668E-001	3.4660912E+000	2.4744847E+000	4.9401635E+008	1.1431642E+010	1.1442311E+010	-8.7525513E+001	0.0000000E+000	0.0000000E+000	0.0000000E+000	8.7525513E+001	0.0000000E+000	0.0000000E+000	0.0000000E+000	-8.7525513E+001	0.0000000E+000	0.0000000E+000	0.0000000E+000	-2.4744847E+000	0.0000000E+000	0.0000000E+000	0.0000000E+000	2.4744847E+000	2.3140232E+001	2.4744847E+000	-1.660406968575137E-002
3.5963193E-002	2.8902966E-001	9.5336745E-003	2.8918684E-001	-1.8892226E+000	5.985316645354214E+002	-2.6887609E-004	-8.8018590E-001	4.6419622E+008	5.0450466E+005	1.000000000000000E+000	10	1.0598209E-002	3.6648311E-002	0	-1.319051929313383E-001	3.4560924E+000	1.1399959E-001	3.4579720E+000	1.8892226E+000	5.0450426E+008	1.5294921E+010	1.5303239E+010	-8.8110779E+001	0.0000000E+000	0.0000000E+000	0.0000000E+000	8.8110779E+001	0.0000000E+000	0.0000000E+000	0.0000000E+000	-8.8110779E+001	0.0000000E+000	0.0000000E+000	0.0000000E+000	-1.8892226E+000	0.0000000E+000	0.0000000E+000	0.0000000E+000	1.8892226E+000	3.0316711E+001	1.8892226E+000	-8.184048530784332E-003
2.6816482E-002	2.8920111E-001	7.2264844E-003	2.8929138E-001	-1.4313946E+000	7.889811806478829E+002	-2.6985974E-004	-8.6768079E-001	8.2128006E+008	5.1247703E+005	1.000000000000000E+000	10	1.0597189E-002	3.6631539E-002	0	-1.413394704188539E-001	3.4556439E+000	8.6348757E-002	3.4567225E+000	1.4313946E+000	5.1247770E+008	2.0509133E+010	2.0515535E+010	-8.8568604E+001	0.0000000E+000	0.0000000E+000	0.0000000E+000	8.8568604E+001	0.0000000E+000	0.0000000E+000	0.0000000E+000	-8.8568604E+001	0.0000000E+000	0.0000000E+000	0.0000000E+000	-1.4313946E+000	0.0000000E+000	0.0000000E+000	0.0000000E+000	1.4313946E+000	4.0019615E+001	1.4313946E+000	-9.434277487515574E-003
1.9992474E-002	2.8860277E-001	5.3207893E-003	2.8865182E-001	-1.0562069E+000	1.044415452033718E+003	-2.7055142E-004	-8.5826975E-001	1.4961583E+009	5.0837134E+005	1.000000000000000E+000	10	1.0597645E-002	3.6714286E-002	0	-1.731388769629643E-001	3.4637928E+000	6.3859791E-002	3.4643815E+000	1.0562069E+000	5.0837075E+008	2.7574362E+010	2.7579048E+010	-8.8943794E+001	0.0000000E+000	0.0000000E+000	0.0000000E+000	8.8943794E+001	0.0000000E+000	0.0000000E+000	0.0000000E+000	-8.8943794E+001	0.0000000E+000	0.0000000E+000	0.0000000E+000	-1.0562069E+000	0.0000000E+000	0.0000000E+000	0.0000000E+000	1.0562069E+000	5.4240593E+001	1.0562069E+000	-3.179940654411043E-002