EC-Lab ASCII FILE
Nb header lines : 66                          

Potentio Electrochemical Impedance Spectroscopy

Run on channel : 3 (SN 50730)
User : 
CE vs. WE compliance from -10 V to 10 V
Electrode connection : standard
Potential control : Ewe
Ewe ctrl range : min = -10.00 V, max = 10.00 V
Safety Limits :
	Do not start on E overload
Acquisition started on : 02/14/2023 16:56:05.168
Loaded Setting File :  NONE
Saved on :
	File : NoPattern_IDFF_05Fe_2MHCL_ve10cms_EIS_PCGA_01_PEIS_C01_01_PEIS_C03.mpr
	Directory : C:\Users\sto063\Documents\EC-Lab\Data\Baichen\Micormolding\20230214_denseNoPatternS4_IDFF\
	Host : 131.155.90.158
Device : VSP-3e (SN .003050)
Address : USB
EC-Lab for windows v11.43 (software)
Internet server v11.40 (firmware)
Command interpretor v11.40 (firmware)
Electrode material : 
Initial state : 
Electrolyte : 
Comments : 
Electrode surface area : 0.001 cm2
Characteristic mass : 0.001 g
Equivalent Weight : 0.000 g/eq.
Density : 0.000 g/cm3
Volume (V) : 0.001 cm3
Cycle Definition : Charge/Discharge alternance
Mode                Single sine         
E (V)               0.0000              
vs.                 Eoc                 
tE (h:m:s)          0:00:0.0000         
record              0                   
dI                  0.000               
unit dI             mA                  
dt (s)              0.000               
fi                  200.000             
unit fi             kHz                 
ff                  4.000               
unit ff             mHz                 
Nd                  8                   
Points              per decade          
spacing             Logarithmic         
Va (mV)             10.0                
pw                  0.10                
Na                  5                   
corr                0                   
E range min (V)     -10.000             
E range max (V)     10.000              
I Range             Auto                
Bandwidth           5                   
nc cycles           0                   
goto Ns'            0                   
nr cycles           0                   
inc. cycle          0                   

Modify on : 02/14/2023 16:56
ff                  20.000              

freq/Hz	Re(Z)/Ohm	-Im(Z)/Ohm	|Z|/Ohm	Phase(Z)/deg	time/s	<Ewe>/V	<I>/mA	Cs/uF	Cp/uF	cycle number	I Range	|Ewe|/V	|I|/A	Ns	(Q-Qo)/mA.h	Re(Y)/Ohm-1	Im(Y)/Ohm-1	|Y|/Ohm-1	Phase(Y)/deg	Re(C)/nF	Im(C)/nF	|C|/nF	Phase(C)/deg	Re(M)	Im(M)	|M|	Phase(M)/deg	Re(Permittivity)	Im(Permittivity)	|Permittivity|	Phase(Permittivity)/deg	Re(Resistivity)/Ohm.cm	Im(Resistivity)/Ohm.cm	|Resistivity|/Ohm.cm	Phase(Resistivity)/deg	Re(Conductivity)/mS/cm	Im(Conductivity)/mS/cm	|Conductivity|/mS/cm	Phase(Conductivity)/deg	Tan(Delta)	Loss Angle(Delta)/deg	dq/mA.h	
1.9999814E+005	1.9721574E-001	-7.4038289E-002	2.1065544E-001	2.0577028E+001	1.738480349216843E+000	-3.8622294E-004	-1.3038012E+000	-1.0748251E+001	-1.3277161E+000	1.000000000000000E+000	9	8.5842150E-004	4.0750029E-003	0	-4.770821304315921E-004	4.4442267E+000	-1.6684418E+000	4.7470884E+000	-2.0577028E+001	-1.3277161E+003	3.5366362E+003	3.7776482E+003	-1.1057703E+002	0.0000000E+000	0.0000000E+000	0.0000000E+000	1.1057703E+002	0.0000000E+000	0.0000000E+000	0.0000000E+000	-1.1057703E+002	0.0000000E+000	0.0000000E+000	0.0000000E+000	2.0577028E+001	0.0000000E+000	0.0000000E+000	0.0000000E+000	-2.0577028E+001	-2.6636992E+000	-2.0577028E+001	-4.770821304315921E-004
1.4956020E+005	2.0528965E-001	-5.3591397E-002	2.1216945E-001	1.4630692E+001	2.562479161686497E+000	-4.0007176E-004	-1.3393499E+000	-1.9856789E+001	-1.2668741E+000	1.000000000000000E+000	9	1.8209051E-003	8.5823154E-003	0	-7.997098821442988E-004	4.5603833E+000	-1.1904999E+000	4.7132139E+000	-1.4630692E+001	-1.2668740E+003	4.8529458E+003	5.0155811E+003	-1.0463069E+002	0.0000000E+000	0.0000000E+000	0.0000000E+000	1.0463069E+002	0.0000000E+000	0.0000000E+000	0.0000000E+000	-1.0463069E+002	0.0000000E+000	0.0000000E+000	0.0000000E+000	1.4630692E+001	0.0000000E+000	0.0000000E+000	0.0000000E+000	-1.4630692E+001	-3.8306456E+000	-1.4630692E+001	-3.226277517127067E-004
1.1184308E+005	2.0957986E-001	-3.8617622E-002	2.1310803E-001	1.0440333E+001	3.386491734156152E+000	-4.2983834E-004	-1.6665334E+000	-3.6848980E+001	-1.2100321E+000	1.000000000000000E+000	9	4.7237556E-003	2.2166014E-002	0	-1.152333109496213E-003	4.6147680E+000	-8.5032690E-001	4.6924558E+000	-1.0440333E+001	-1.2100319E+003	6.5669077E+003	6.6774585E+003	-1.0044033E+002	0.0000000E+000	0.0000000E+000	0.0000000E+000	1.0044033E+002	0.0000000E+000	0.0000000E+000	0.0000000E+000	-1.0044033E+002	0.0000000E+000	0.0000000E+000	0.0000000E+000	1.0440333E+001	0.0000000E+000	0.0000000E+000	0.0000000E+000	-1.0440333E+001	-5.4270525E+000	-1.0440333E+001	-3.526232273519142E-004
8.3636430E+004	2.1087827E-001	-2.7053541E-002	2.1260653E-001	7.3105350E+000	4.347477406467078E+000	-4.6409661E-004	-1.7923210E+000	-7.0339706E+001	-1.1389260E+000	1.000000000000000E+000	9	2.3060029E-002	1.0846341E-001	0	-1.695946389937773E-003	4.6652894E+000	-5.9850925E-001	4.7035241E+000	-7.3105350E+000	-1.1389255E+003	8.8777568E+003	8.9505146E+003	-9.7310532E+001	0.0000000E+000	0.0000000E+000	0.0000000E+000	9.7310532E+001	0.0000000E+000	0.0000000E+000	0.0000000E+000	-9.7310532E+001	0.0000000E+000	0.0000000E+000	0.0000000E+000	7.3105350E+000	0.0000000E+000	0.0000000E+000	0.0000000E+000	-7.3105350E+000	-7.7948489E+000	-7.3105350E+000	-5.436132804415602E-004
6.2546391E+004	2.1140885E-001	-1.8815191E-002	2.1224447E-001	5.0858717E+000	6.404484357481124E+000	-3.7036074E-004	-1.4805386E+000	-1.3524127E+002	-1.0628054E+000	1.000000000000000E+000	9	1.2791003E-002	6.0265426E-002	0	-2.412402348341938E-003	4.6929984E+000	-4.1767251E-001	4.7115479E+000	-5.0858717E+000	-1.0628049E+003	1.1941759E+004	1.1988960E+004	-9.5085869E+001	0.0000000E+000	0.0000000E+000	0.0000000E+000	9.5085869E+001	0.0000000E+000	0.0000000E+000	0.0000000E+000	-9.5085869E+001	0.0000000E+000	0.0000000E+000	0.0000000E+000	5.0858717E+000	0.0000000E+000	0.0000000E+000	0.0000000E+000	-5.0858717E+000	-1.1236073E+001	-5.0858717E+000	-7.164559584041646E-004
4.6772934E+004	2.1230161E-001	-1.2692505E-002	2.1268068E-001	3.4213700E+000	7.502495902968803E+000	-3.1802221E-004	-1.2988096E+000	-2.6808850E+002	-9.5480961E-001	1.000000000000000E+000	9	9.3029691E-003	4.3741487E-002	0	-2.776892916063468E-003	4.6935039E+000	-2.8060231E-001	4.7018843E+000	-3.4213700E+000	-9.5480994E+002	1.5970654E+004	1.5999171E+004	-9.3421371E+001	0.0000000E+000	0.0000000E+000	0.0000000E+000	9.3421371E+001	0.0000000E+000	0.0000000E+000	0.0000000E+000	-9.3421371E+001	0.0000000E+000	0.0000000E+000	0.0000000E+000	3.4213700E+000	0.0000000E+000	0.0000000E+000	0.0000000E+000	-3.4213700E+000	-1.6726534E+001	-3.4213700E+000	-3.644905677215298E-004
3.4970684E+004	2.1338581E-001	-7.8654112E-003	2.1353072E-001	2.1109695E+000	8.326473675464513E+000	-3.1099527E-004	-1.2362777E+000	-5.7862152E+002	-7.8508508E-001	1.000000000000000E+000	9	9.2858002E-003	4.3486953E-002	0	-2.993277743961662E-003	4.6799889E+000	-1.7250462E-001	4.6831670E+000	-2.1109695E+000	-7.8508514E+002	2.1299080E+004	2.1313545E+004	-9.2110970E+001	0.0000000E+000	0.0000000E+000	0.0000000E+000	9.2110970E+001	0.0000000E+000	0.0000000E+000	0.0000000E+000	-9.2110970E+001	0.0000000E+000	0.0000000E+000	0.0000000E+000	2.1109695E+000	0.0000000E+000	0.0000000E+000	0.0000000E+000	-2.1109695E+000	-2.7129644E+001	-2.1109695E+000	-2.163848278981945E-004
2.6156100E+004	2.1453655E-001	-4.3290905E-003	2.1458022E-001	1.1560034E+000	9.150490487954812E+000	-3.0913134E-004	-1.2273766E+000	-1.4055635E+003	-5.7209009E-001	1.000000000000000E+000	9	9.9079236E-003	4.6173517E-002	0	-3.336669645729164E-003	4.6593132E+000	-9.4019361E-002	4.6602616E+000	-1.1560034E+000	-5.7209137E+002	2.8351043E+004	2.8356814E+004	-9.1156006E+001	0.0000000E+000	0.0000000E+000	0.0000000E+000	9.1156006E+001	0.0000000E+000	0.0000000E+000	0.0000000E+000	-9.1156006E+001	0.0000000E+000	0.0000000E+000	0.0000000E+000	1.1560034E+000	0.0000000E+000	0.0000000E+000	0.0000000E+000	-1.1560034E+000	-4.9556957E+001	-1.1560034E+000	-3.433919017675020E-004
1.9559088E+004	2.1559787E-001	-1.7104083E-003	2.1560465E-001	4.5453662E-001	9.974481167068006E+000	-3.0370735E-004	-1.1854962E+000	-4.7574229E+003	-2.9940227E-001	1.000000000000000E+000	9	1.0301340E-002	4.7778841E-002	0	-3.608924315537636E-003	4.6379728E+000	-3.6794554E-002	4.6381187E+000	-4.5453662E-001	-2.9940216E+002	3.7739813E+004	3.7741000E+004	-9.0454536E+001	0.0000000E+000	0.0000000E+000	0.0000000E+000	9.0454536E+001	0.0000000E+000	0.0000000E+000	0.0000000E+000	-9.0454536E+001	0.0000000E+000	0.0000000E+000	0.0000000E+000	4.5453662E-001	0.0000000E+000	0.0000000E+000	0.0000000E+000	-4.5453662E-001	-1.2605053E+002	-4.5453662E-001	-2.722546698084721E-004
1.4622922E+004	2.1688150E-001	7.4563133E-005	2.1688151E-001	-1.9698095E-002	1.079847509952378E+001	-3.0320408E-004	-1.1736528E+000	1.4596939E+005	1.7253017E-002	1.000000000000000E+000	9	1.0461949E-002	4.8238084E-002	0	-3.796807406142147E-003	4.6108122E+000	1.5851817E-003	4.6108127E+000	1.9698095E-002	1.7253893E+001	5.0183785E+004	5.0183789E+004	-8.9980301E+001	0.0000000E+000	0.0000000E+000	0.0000000E+000	8.9980301E+001	0.0000000E+000	0.0000000E+000	0.0000000E+000	-8.9980301E+001	0.0000000E+000	0.0000000E+000	0.0000000E+000	-1.9698095E-002	0.0000000E+000	0.0000000E+000	0.0000000E+000	1.9698095E-002	2.9086960E+003	1.9698095E-002	-1.878830906045107E-004
1.0939354E+004	2.1782932E-001	1.3280649E-003	2.1783337E-001	-3.4931740E-001	1.162248263202491E+001	-2.9874934E-004	-1.1860361E+000	1.0954918E+004	4.0719169E-001	1.000000000000000E+000	9	1.0478689E-002	4.8104152E-002	0	-4.113480163260052E-003	4.5905795E+000	2.7987910E-002	4.5906649E+000	3.4931740E-001	4.0719409E+002	6.6787617E+004	6.6788859E+004	-8.9650681E+001	0.0000000E+000	0.0000000E+000	0.0000000E+000	8.9650681E+001	0.0000000E+000	0.0000000E+000	0.0000000E+000	-8.9650681E+001	0.0000000E+000	0.0000000E+000	0.0000000E+000	-3.4931740E-001	0.0000000E+000	0.0000000E+000	0.0000000E+000	3.4931740E-001	1.6402008E+002	3.4931740E-001	-3.166727571179053E-004
8.1784604E+003	2.1884136E-001	2.2004379E-003	2.1885242E-001	-5.7608652E-001	1.254040838227957E+001	-2.9744458E-004	-1.1546025E+000	8.8438115E+003	8.9403605E-001	1.000000000000000E+000	9	1.0407705E-002	4.7555815E-002	0	-4.324861845085190E-003	4.5690584E+000	4.5941632E-002	4.5692892E+000	5.7608652E-001	8.9403821E+002	8.8915055E+004	8.8919547E+004	-8.9423912E+001	0.0000000E+000	0.0000000E+000	0.0000000E+000	8.9423912E+001	0.0000000E+000	0.0000000E+000	0.0000000E+000	-8.9423912E+001	0.0000000E+000	0.0000000E+000	0.0000000E+000	-5.7608652E-001	0.0000000E+000	0.0000000E+000	0.0000000E+000	5.7608652E-001	9.9453545E+001	5.7608652E-001	-2.113816818251381E-004
6.1154248E+003	2.1968119E-001	2.6288249E-003	2.1969692E-001	-6.8559980E-001	1.369166051701177E+001	-3.0564578E-004	-1.0851249E+000	9.8999238E+003	1.4174483E+000	1.000000000000000E+000	9	1.0267891E-002	4.6736617E-002	0	-4.615938867202235E-003	4.5513992E+000	5.4464523E-002	4.5517249E+000	6.8559980E-001	1.4174492E+003	1.1845091E+005	1.1845940E+005	-8.9314400E+001	0.0000000E+000	0.0000000E+000	0.0000000E+000	8.9314400E+001	0.0000000E+000	0.0000000E+000	0.0000000E+000	-8.9314400E+001	0.0000000E+000	0.0000000E+000	0.0000000E+000	-6.8559980E-001	0.0000000E+000	0.0000000E+000	0.0000000E+000	6.8559980E-001	8.3566307E+001	6.8559980E-001	-2.910770221170450E-004
4.5714629E+003	2.2042370E-001	2.9838691E-003	2.2044389E-001	-7.7556390E-001	1.502968836722721E+001	-2.9267295E-004	-1.0487380E+000	1.1667698E+004	2.1377089E+000	1.000000000000000E+000	9	1.0194803E-002	4.6246700E-002	0	-5.062992349872366E-003	4.5358858E+000	6.1402153E-002	4.5363016E+000	7.7556390E-001	2.1377148E+003	1.5791634E+005	1.5793081E+005	-8.9224434E+001	0.0000000E+000	0.0000000E+000	0.0000000E+000	8.9224434E+001	0.0000000E+000	0.0000000E+000	0.0000000E+000	-8.9224434E+001	0.0000000E+000	0.0000000E+000	0.0000000E+000	-7.7556390E-001	0.0000000E+000	0.0000000E+000	0.0000000E+000	7.7556390E-001	7.3871773E+001	7.7556390E-001	-4.470534826701306E-004
3.4210947E+003	2.2121495E-001	3.0457454E-003	2.2123592E-001	-7.8881347E-001	1.614566639356781E+001	-2.9118182E-004	-1.0408796E+000	1.5274303E+004	2.8949251E+000	1.000000000000000E+000	9	1.0765807E-002	4.8662111E-002	0	-5.354557714348452E-003	4.5196338E+000	6.2227499E-002	4.5200620E+000	7.8881347E-001	2.8949153E+003	2.1026077E+005	2.1028069E+005	-8.9211189E+001	0.0000000E+000	0.0000000E+000	0.0000000E+000	8.9211189E+001	0.0000000E+000	0.0000000E+000	0.0000000E+000	-8.9211189E+001	0.0000000E+000	0.0000000E+000	0.0000000E+000	-7.8881347E-001	0.0000000E+000	0.0000000E+000	0.0000000E+000	7.8881347E-001	7.2630806E+001	7.8881347E-001	-2.915653644760862E-004
2.5675354E+003	2.2045451E-001	2.8569454E-003	2.2047302E-001	-7.4247408E-001	1.748292197706178E+001	-2.9369813E-004	-1.0433749E+000	2.1697104E+004	3.6432981E+000	1.000000000000000E+000	9	1.0004763E-002	4.5378625E-002	0	-5.722005000373970E-003	4.5353212E+000	5.8774784E-002	4.5357022E+000	7.4247408E-001	3.6433147E+003	2.8113297E+005	2.8115656E+005	-8.9257523E+001	0.0000000E+000	0.0000000E+000	0.0000000E+000	8.9257523E+001	0.0000000E+000	0.0000000E+000	0.0000000E+000	-8.9257523E+001	0.0000000E+000	0.0000000E+000	0.0000000E+000	-7.4247408E-001	0.0000000E+000	0.0000000E+000	0.0000000E+000	7.4247408E-001	7.7164413E+001	7.4247408E-001	-3.674472860255174E-004
1.8382352E+003	2.2256948E-001	3.0243595E-003	2.2259003E-001	-7.7850914E-001	1.859892296339967E+001	-2.9108865E-004	-1.0749760E+000	2.8627646E+004	5.2849517E+000	1.000000000000000E+000	9	1.0256268E-002	4.6076942E-002	0	-6.070579593206859E-003	4.4921494E+000	6.1041053E-002	4.4925642E+000	7.7850914E-001	5.2849653E+003	3.8893163E+005	3.8896753E+005	-8.9221489E+001	0.0000000E+000	0.0000000E+000	0.0000000E+000	8.9221489E+001	0.0000000E+000	0.0000000E+000	0.0000000E+000	-8.9221489E+001	0.0000000E+000	0.0000000E+000	0.0000000E+000	-7.7850914E-001	0.0000000E+000	0.0000000E+000	0.0000000E+000	7.7850914E-001	7.3592270E+001	7.7850914E-001	-3.485745928328895E-004
1.3721958E+003	2.2336201E-001	2.9055688E-003	2.2338091E-001	-7.4528092E-001	1.971443528300733E+001	-2.9485373E-004	-1.0536356E+000	3.9918379E+004	6.7537208E+000	1.000000000000000E+000	9	1.0367453E-002	4.6411544E-002	0	-6.434537365157157E-003	4.4762797E+000	5.8228966E-002	4.4766583E+000	7.4528092E-001	6.7536895E+003	5.1918394E+005	5.1922788E+005	-8.9254723E+001	0.0000000E+000	0.0000000E+000	0.0000000E+000	8.9254723E+001	0.0000000E+000	0.0000000E+000	0.0000000E+000	-8.9254723E+001	0.0000000E+000	0.0000000E+000	0.0000000E+000	-7.4528092E-001	0.0000000E+000	0.0000000E+000	0.0000000E+000	7.4528092E-001	7.6873764E+001	7.4528092E-001	-3.639577719502978E-004
1.0240171E+003	2.2378059E-001	2.8093597E-003	2.2379822E-001	-7.1925807E-001	2.082994802936446E+001	-2.9448097E-004	-1.0745664E+000	5.5322980E+004	8.7178020E+000	1.000000000000000E+000	9	1.0416435E-002	4.6543870E-002	0	-6.763271621560885E-003	4.4679589E+000	5.6091115E-002	4.4683108E+000	7.1925807E-001	8.7178408E+003	6.9441981E+005	6.9447456E+005	-8.9280739E+001	0.0000000E+000	0.0000000E+000	0.0000000E+000	8.9280739E+001	0.0000000E+000	0.0000000E+000	0.0000000E+000	-8.9280739E+001	0.0000000E+000	0.0000000E+000	0.0000000E+000	-7.1925807E-001	0.0000000E+000	0.0000000E+000	0.0000000E+000	7.1925807E-001	7.9655373E+001	7.1925807E-001	-3.287342564037279E-004
7.6329034E+002	2.2415364E-001	2.6270584E-003	2.2416903E-001	-6.7147011E-001	2.194919037583168E+001	-2.8696939E-004	-1.0392596E+000	7.9370773E+004	1.0900561E+001	1.000000000000000E+000	9	1.0441975E-002	4.6580810E-002	0	-7.104150866525455E-003	4.4606133E+000	5.2277941E-002	4.4609194E+000	6.7147011E-001	1.0900569E+004	9.3008988E+005	9.3015375E+005	-8.9328529E+001	0.0000000E+000	0.0000000E+000	0.0000000E+000	8.9328529E+001	0.0000000E+000	0.0000000E+000	0.0000000E+000	-8.9328529E+001	0.0000000E+000	0.0000000E+000	0.0000000E+000	-6.7147011E-001	0.0000000E+000	0.0000000E+000	0.0000000E+000	6.7147011E-001	8.5324951E+001	6.7147011E-001	-3.408792449645700E-004
5.6945331E+002	2.2463121E-001	2.4109890E-003	2.2464414E-001	-6.1493766E-001	2.306494949554326E+001	-2.9791056E-004	-1.0655907E+000	1.1592223E+005	1.3352637E+001	1.000000000000000E+000	9	1.0463570E-002	4.6578426E-002	0	-7.474361106491337E-003	4.4512286E+000	4.7775481E-002	4.4514852E+000	6.1493766E-001	1.3352619E+004	1.2440618E+006	1.2441334E+006	-8.9385063E+001	0.0000000E+000	0.0000000E+000	0.0000000E+000	8.9385063E+001	0.0000000E+000	0.0000000E+000	0.0000000E+000	-8.9385063E+001	0.0000000E+000	0.0000000E+000	0.0000000E+000	-6.1493766E-001	0.0000000E+000	0.0000000E+000	0.0000000E+000	6.1493766E-001	9.3169731E+001	6.1493766E-001	-3.702102399658824E-004
4.2513608E+002	2.2489196E-001	2.2886379E-003	2.2490360E-001	-5.8305675E-001	2.418069466854649E+001	-2.9653127E-004	-1.0563357E+000	1.6357430E+005	1.6938559E+001	1.000000000000000E+000	9	1.0468143E-002	4.6545021E-002	0	-7.781705889894317E-003	4.4461193E+000	4.5246430E-002	4.4463496E+000	5.8305675E-001	1.6938467E+004	1.6644598E+006	1.6645459E+006	-8.9416946E+001	0.0000000E+000	0.0000000E+000	0.0000000E+000	8.9416946E+001	0.0000000E+000	0.0000000E+000	0.0000000E+000	-8.9416946E+001	0.0000000E+000	0.0000000E+000	0.0000000E+000	-5.8305675E-001	0.0000000E+000	0.0000000E+000	0.0000000E+000	5.8305675E-001	9.8264542E+001	5.8305675E-001	-3.073447834029798E-004
3.1713113E+002	2.2511749E-001	2.2991365E-003	2.2512923E-001	-5.8514440E-001	2.529142120122560E+001	-2.9677356E-004	-1.0693710E+000	2.1828128E+005	2.2765764E+001	1.000000000000000E+000	9	1.0472273E-002	4.6516716E-002	0	-8.078392016908154E-003	4.4416614E+000	4.5362916E-002	4.4418931E+000	5.8514440E-001	2.2765748E+004	2.2290853E+006	2.2292015E+006	-8.9414856E+001	0.0000000E+000	0.0000000E+000	0.0000000E+000	8.9414856E+001	0.0000000E+000	0.0000000E+000	0.0000000E+000	-8.9414856E+001	0.0000000E+000	0.0000000E+000	0.0000000E+000	-5.8514440E-001	0.0000000E+000	0.0000000E+000	0.0000000E+000	5.8514440E-001	9.7913933E+001	5.8514440E-001	-2.966861270138369E-004
2.3658990E+002	2.2535880E-001	2.3409014E-003	2.2537096E-001	-5.9513515E-001	2.640141370732454E+001	-3.0163839E-004	-1.0584213E+000	2.8736959E+005	3.1003531E+001	1.000000000000000E+000	9	1.0474294E-002	4.6475794E-002	0	-8.360844772223177E-003	4.4368896E+000	4.6087932E-002	4.4371290E+000	5.9513515E-001	3.1003705E+004	2.9847128E+006	2.9848738E+006	-8.9404861E+001	0.0000000E+000	0.0000000E+000	0.0000000E+000	8.9404861E+001	0.0000000E+000	0.0000000E+000	0.0000000E+000	-8.9404861E+001	0.0000000E+000	0.0000000E+000	0.0000000E+000	-5.9513515E-001	0.0000000E+000	0.0000000E+000	0.0000000E+000	5.9513515E-001	9.6270096E+001	5.9513515E-001	-2.824527553150231E-004
1.7641125E+002	2.2554879E-001	2.3981044E-003	2.2556154E-001	-6.0916346E-001	2.751015818663291E+001	-2.9373539E-004	-1.0481235E+000	3.7620603E+005	4.2523777E+001	1.000000000000000E+000	9	1.0472799E-002	4.6429895E-002	0	-8.729330096529590E-003	4.4331293E+000	4.7134396E-002	4.4333797E+000	6.0916346E-001	4.2523633E+004	3.9994870E+006	3.9997130E+006	-8.9390839E+001	0.0000000E+000	0.0000000E+000	0.0000000E+000	8.9390839E+001	0.0000000E+000	0.0000000E+000	0.0000000E+000	-8.9390839E+001	0.0000000E+000	0.0000000E+000	0.0000000E+000	-6.0916346E-001	0.0000000E+000	0.0000000E+000	0.0000000E+000	6.0916346E-001	9.4052948E+001	6.0916346E-001	-3.684853243064133E-004
1.3155768E+002	2.2579587E-001	2.6116944E-003	2.2581097E-001	-6.6268879E-001	2.861439877239172E+001	-2.9914072E-004	-1.0452558E+000	4.6321391E+005	6.1963539E+001	1.000000000000000E+000	9	1.0472652E-002	4.6377957E-002	0	-9.031271192522099E-003	4.4281864E+000	5.1219136E-002	4.4284825E+000	6.6268879E-001	6.1963570E+004	5.3571005E+006	5.3574590E+006	-8.9337311E+001	0.0000000E+000	0.0000000E+000	0.0000000E+000	8.9337311E+001	0.0000000E+000	0.0000000E+000	0.0000000E+000	-8.9337311E+001	0.0000000E+000	0.0000000E+000	0.0000000E+000	-6.6268879E-001	0.0000000E+000	0.0000000E+000	0.0000000E+000	6.6268879E-001	8.6455696E+001	6.6268879E-001	-3.019410959925091E-004
9.8146988E+001	2.2620624E-001	2.7668634E-003	2.2622317E-001	-7.0078385E-001	2.974952453302103E+001	-2.9459278E-004	-1.0539335E+000	5.8607800E+005	8.7671150E+001	1.000000000000000E+000	9	1.0476454E-002	4.6310261E-002	0	-9.378791019320489E-003	4.4200830E+000	5.4064665E-002	4.4204135E+000	7.0078385E-001	8.7671016E+004	7.1675975E+006	7.1681335E+006	-8.9299217E+001	0.0000000E+000	0.0000000E+000	0.0000000E+000	8.9299217E+001	0.0000000E+000	0.0000000E+000	0.0000000E+000	-8.9299217E+001	0.0000000E+000	0.0000000E+000	0.0000000E+000	-7.0078385E-001	0.0000000E+000	0.0000000E+000	0.0000000E+000	7.0078385E-001	8.1755478E+001	7.0078385E-001	-3.475198267983894E-004
7.3242188E+001	2.2647238E-001	3.1030453E-003	2.2649364E-001	-7.8499758E-001	3.088956514713936E+001	-3.1045466E-004	-1.1131133E+000	7.0027838E+005	1.3144223E+002	1.000000000000000E+000	9	1.0473392E-002	4.6241440E-002	0	-9.693959243557105E-003	4.4147205E+000	6.0488954E-002	4.4151349E+000	7.8499758E-001	1.3144197E+005	9.5931680E+006	9.5940680E+006	-8.9215004E+001	0.0000000E+000	0.0000000E+000	0.0000000E+000	8.9215004E+001	0.0000000E+000	0.0000000E+000	0.0000000E+000	-8.9215004E+001	0.0000000E+000	0.0000000E+000	0.0000000E+000	-7.8499758E-001	0.0000000E+000	0.0000000E+000	0.0000000E+000	7.8499758E-001	7.2983910E+001	7.8499758E-001	-3.151682242366165E-004
5.4598160E+001	2.2684781E-001	3.3623292E-003	2.2687273E-001	-8.4917355E-001	3.201522568063228E+001	-3.0711826E-004	-1.0447901E+000	8.6696563E+005	1.9042229E+002	1.000000000000000E+000	9	1.0472971E-002	4.6162318E-002	0	-1.005068080206133E-002	4.4072738E+000	6.5324433E-002	4.4077578E+000	8.4917355E-001	1.9042248E+005	1.2847307E+007	1.2848718E+007	-8.9150826E+001	0.0000000E+000	0.0000000E+000	0.0000000E+000	8.9150826E+001	0.0000000E+000	0.0000000E+000	0.0000000E+000	-8.9150826E+001	0.0000000E+000	0.0000000E+000	0.0000000E+000	-8.4917355E-001	0.0000000E+000	0.0000000E+000	0.0000000E+000	8.4917355E-001	6.7467461E+001	8.4917355E-001	-3.567215585042211E-004
4.0743153E+001	2.2737814E-001	3.6999532E-003	2.2740825E-001	-9.3224877E-001	3.311411314617726E+001	-2.9662446E-004	-1.0423508E+000	1.0557699E+006	2.7947910E+002	1.000000000000000E+000	9	1.0476870E-002	4.6070755E-002	0	-1.030029234551866E-002	4.3967957E+000	7.1545750E-002	4.3973780E+000	9.3224877E-001	2.7947975E+005	1.7175200E+007	1.7177474E+007	-8.9067749E+001	0.0000000E+000	0.0000000E+000	0.0000000E+000	8.9067749E+001	0.0000000E+000	0.0000000E+000	0.0000000E+000	-8.9067749E+001	0.0000000E+000	0.0000000E+000	0.0000000E+000	-9.3224877E-001	0.0000000E+000	0.0000000E+000	0.0000000E+000	9.3224877E-001	6.1454330E+001	9.3224877E-001	-2.496115434573332E-004
3.0398830E+001	2.2783495E-001	4.2072637E-003	2.2787380E-001	-1.0579196E+000	3.421810594524140E+001	-2.9645671E-004	-1.0337476E+000	1.2444101E+006	4.2420346E+002	1.000000000000000E+000	9	1.0473321E-002	4.5961060E-002	0	-1.063991844675690E-002	4.3876457E+000	8.1023492E-002	4.3883939E+000	1.0579196E+000	4.2420459E+005	2.2971790E+007	2.2975706E+007	-8.8942078E+001	0.0000000E+000	0.0000000E+000	0.0000000E+000	8.8942078E+001	0.0000000E+000	0.0000000E+000	0.0000000E+000	-8.8942078E+001	0.0000000E+000	0.0000000E+000	0.0000000E+000	-1.0579196E+000	0.0000000E+000	0.0000000E+000	0.0000000E+000	1.0579196E+000	5.4152763E+001	1.0579196E+000	-3.396261012382391E-004
2.2658066E+001	2.2843270E-001	4.6742246E-003	2.2848052E-001	-1.1722313E+000	3.543644296310958E+001	-2.9090227E-004	-1.0563171E+000	1.5027535E+006	6.2893903E+002	1.000000000000000E+000	9	1.0472974E-002	4.5837492E-002	0	-1.107351254966317E-002	4.3758249E+000	8.9538790E-002	4.3767409E+000	1.1722313E+000	6.2894025E+005	3.0736702E+007	3.0743136E+007	-8.8827766E+001	0.0000000E+000	0.0000000E+000	0.0000000E+000	8.8827766E+001	0.0000000E+000	0.0000000E+000	0.0000000E+000	-8.8827766E+001	0.0000000E+000	0.0000000E+000	0.0000000E+000	-1.1722313E+000	0.0000000E+000	0.0000000E+000	0.0000000E+000	1.1722313E+000	4.8870716E+001	1.1722313E+000	-4.335941029062710E-004
1.6910175E+001	2.2923464E-001	5.2559567E-003	2.2929488E-001	-1.3134637E+000	3.643914039744413E+001	-2.9781737E-004	-1.0852925E+000	1.7906894E+006	9.4088184E+002	1.000000000000000E+000	9	1.0475752E-002	4.5686811E-002	0	-1.134722916053153E-002	4.3600507E+000	9.9968471E-002	4.3611965E+000	1.3134637E+000	9.4088006E+005	4.1035860E+007	4.1046644E+007	-8.8686539E+001	0.0000000E+000	0.0000000E+000	0.0000000E+000	8.8686539E+001	0.0000000E+000	0.0000000E+000	0.0000000E+000	-8.8686539E+001	0.0000000E+000	0.0000000E+000	0.0000000E+000	-1.3134637E+000	0.0000000E+000	0.0000000E+000	0.0000000E+000	1.3134637E+000	4.3614254E+001	1.3134637E+000	-2.737166108683579E-004
1.2627966E+001	2.3006418E-001	5.7692402E-003	2.3013651E-001	-1.4364854E+000	3.774434488607221E+001	-2.9189946E-004	-1.0568385E+000	2.1845808E+006	1.3728854E+003	1.000000000000000E+000	9	1.0474563E-002	4.5514561E-002	0	-1.154345035245518E-002	4.3438811E+000	1.0893001E-001	4.3452468E+000	1.4364854E+000	1.3728854E+006	5.4747552E+007	5.4764764E+007	-8.8563515E+001	0.0000000E+000	0.0000000E+000	0.0000000E+000	8.8563515E+001	0.0000000E+000	0.0000000E+000	0.0000000E+000	-8.8563515E+001	0.0000000E+000	0.0000000E+000	0.0000000E+000	-1.4364854E+000	0.0000000E+000	0.0000000E+000	0.0000000E+000	1.4364854E+000	3.9877728E+001	1.4364854E+000	-1.962211919236505E-004
9.4126539E+000	2.3112132E-001	6.2246453E-003	2.3120512E-001	-1.5427383E+000	3.892022326189908E+001	-2.9792919E-004	-1.0439336E+000	2.7163980E+006	1.9689186E+003	1.000000000000000E+000	9	1.0475738E-002	4.5309283E-002	0	-1.183185873101693E-002	4.3235960E+000	1.1644470E-001	4.3251638E+000	1.5427383E+000	1.9689205E+006	7.3106016E+007	7.3132528E+007	-8.8457260E+001	0.0000000E+000	0.0000000E+000	0.0000000E+000	8.8457260E+001	0.0000000E+000	0.0000000E+000	0.0000000E+000	-8.8457260E+001	0.0000000E+000	0.0000000E+000	0.0000000E+000	-1.5427383E+000	0.0000000E+000	0.0000000E+000	0.0000000E+000	1.5427383E+000	3.7130039E+001	1.5427383E+000	-2.884083785617518E-004
7.0256276E+000	2.3235629E-001	6.9621601E-003	2.3246057E-001	-1.7162569E+000	3.975604802163434E+001	-3.2363253E-004	-1.1191840E+000	3.2538010E+006	2.9186389E+003	1.000000000000000E+000	9	1.0472767E-002	4.5051798E-002	0	-1.223560397145732E-002	4.2998748E+000	1.2883842E-001	4.3018045E+000	1.7162569E+000	2.9186363E+006	9.7407144E+007	9.7450864E+007	-8.8283745E+001	0.0000000E+000	0.0000000E+000	0.0000000E+000	8.8283745E+001	0.0000000E+000	0.0000000E+000	0.0000000E+000	-8.8283745E+001	0.0000000E+000	0.0000000E+000	0.0000000E+000	-1.7162569E+000	0.0000000E+000	0.0000000E+000	0.0000000E+000	1.7162569E+000	3.3374168E+001	1.7162569E+000	-4.037452404403851E-004
5.2362599E+000	2.3357588E-001	7.5209090E-003	2.3369694E-001	-1.8442295E+000	4.082873052594368E+001	-2.9367948E-004	-1.0689054E+000	4.0413698E+006	4.1856533E+003	1.000000000000000E+000	9	1.0474765E-002	4.4822004E-002	0	-1.300803387778211E-002	4.2768297E+000	1.3770962E-001	4.2790461E+000	1.8442295E+000	4.1856558E+006	1.2999327E+008	1.3006064E+008	-8.8155769E+001	0.0000000E+000	0.0000000E+000	0.0000000E+000	8.8155769E+001	0.0000000E+000	0.0000000E+000	0.0000000E+000	-8.8155769E+001	0.0000000E+000	0.0000000E+000	0.0000000E+000	-1.8442295E+000	0.0000000E+000	0.0000000E+000	0.0000000E+000	1.8442295E+000	3.1056868E+001	1.8442295E+000	-7.724299063247946E-004
3.9062498E+000	2.3511887E-001	8.3578471E-003	2.3526737E-001	-2.0358546E+000	4.222581067230203E+001	-2.9546884E-004	-1.0288780E+000	4.8749000E+006	6.1522100E+003	1.000000000000000E+000	9	1.0473635E-002	4.4518009E-002	0	-1.262482363436061E-002	4.2477999E+000	1.5099794E-001	4.2504830E+000	2.0358546E+000	6.1522215E+006	1.7307098E+008	1.7318029E+008	-8.7964142E+001	0.0000000E+000	0.0000000E+000	0.0000000E+000	8.7964142E+001	0.0000000E+000	0.0000000E+000	0.0000000E+000	-8.7964142E+001	0.0000000E+000	0.0000000E+000	0.0000000E+000	-2.0358546E+000	0.0000000E+000	0.0000000E+000	0.0000000E+000	2.0358546E+000	2.8131512E+001	2.0358546E+000	3.832102434215036E-004
2.9129384E+000	2.3686539E-001	9.0608522E-003	2.3703863E-001	-2.1906772E+000	4.406213057282730E+001	-2.8408004E-004	-1.0309842E+000	6.0300340E+006	8.8108867E+003	1.000000000000000E+000	9	1.0475616E-002	4.4193707E-002	0	-1.353248611846525E-002	4.2156386E+000	1.6126154E-001	4.2187219E+000	2.1906772E+000	8.8108730E+006	2.3033088E+008	2.3049934E+008	-8.7809326E+001	0.0000000E+000	0.0000000E+000	0.0000000E+000	8.7809326E+001	0.0000000E+000	0.0000000E+000	0.0000000E+000	-8.7809326E+001	0.0000000E+000	0.0000000E+000	0.0000000E+000	-2.1906772E+000	0.0000000E+000	0.0000000E+000	0.0000000E+000	2.1906772E+000	2.6141623E+001	2.1906772E+000	-9.076624841046418E-004
2.1749718E+000	2.3871788E-001	9.5078936E-003	2.3890716E-001	-2.2808278E+000	4.648972143483115E+001	-2.8597223E-004	-1.0410938E+000	7.6963035E+006	1.2189686E+004	1.000000000000000E+000	9	1.0477331E-002	4.3855239E-002	0	-1.515984580480605E-002	4.1824102E+000	1.6658118E-001	4.1857262E+000	2.2808278E+000	1.2189699E+007	3.0605053E+008	3.0629318E+008	-8.7719170E+001	0.0000000E+000	0.0000000E+000	0.0000000E+000	8.7719170E+001	0.0000000E+000	0.0000000E+000	0.0000000E+000	-8.7719170E+001	0.0000000E+000	0.0000000E+000	0.0000000E+000	-2.2808278E+000	0.0000000E+000	0.0000000E+000	0.0000000E+000	2.2808278E+000	2.5107336E+001	2.2808278E+000	-1.627359686340800E-003
1.6208506E+000	2.4080217E-001	9.8465225E-003	2.4100339E-001	-2.3415489E+000	4.971701641476830E+001	-2.8223105E-004	-9.9046576E-001	9.9722760E+006	1.6646146E+004	1.000000000000000E+000	9	1.0474082E-002	4.3460310E-002	0	-1.490767588288254E-002	4.1458545E+000	1.6952609E-001	4.1493192E+000	2.3415489E+000	1.6646174E+007	4.0709075E+008	4.0743094E+008	-8.7658447E+001	0.0000000E+000	0.0000000E+000	0.0000000E+000	8.7658447E+001	0.0000000E+000	0.0000000E+000	0.0000000E+000	-8.7658447E+001	0.0000000E+000	0.0000000E+000	0.0000000E+000	-2.3415489E+000	0.0000000E+000	0.0000000E+000	0.0000000E+000	2.3415489E+000	2.4455555E+001	2.3415489E+000	2.521699219235063E-004
1.2104893E+000	2.4280357E-001	9.5719956E-003	2.4299218E-001	-2.2575908E+000	5.401027235199581E+001	-2.8346496E-004	-1.0363110E+000	1.3735886E+007	2.1314594E+004	1.000000000000000E+000	9	1.0476073E-002	4.3112800E-002	0	-1.471366303093535E-002	4.1121645E+000	1.6211303E-001	4.1153588E+000	2.2575908E+000	2.1314600E+007	5.4066675E+008	5.4108672E+008	-8.7742409E+001	0.0000000E+000	0.0000000E+000	0.0000000E+000	8.7742409E+001	0.0000000E+000	0.0000000E+000	0.0000000E+000	-8.7742409E+001	0.0000000E+000	0.0000000E+000	0.0000000E+000	-2.2575908E+000	0.0000000E+000	0.0000000E+000	0.0000000E+000	2.2575908E+000	2.5366035E+001	2.2575908E+000	1.940128519471937E-004
9.0213656E-001	2.4453445E-001	9.2529347E-003	2.4470945E-001	-2.1669803E+000	6.089892307922128E+001	-2.7820872E-004	-9.9448466E-001	1.9066384E+007	2.7260002E+004	1.000000000000000E+000	10	1.0475753E-002	4.2808942E-002	0	-1.739016059378866E-002	4.0835562E+000	1.5451762E-001	4.0864787E+000	2.1669803E+000	2.7259960E+007	7.2042106E+008	7.2093664E+008	-8.7833023E+001	0.0000000E+000	0.0000000E+000	0.0000000E+000	8.7833023E+001	0.0000000E+000	0.0000000E+000	0.0000000E+000	-8.7833023E+001	0.0000000E+000	0.0000000E+000	0.0000000E+000	-2.1669803E+000	0.0000000E+000	0.0000000E+000	0.0000000E+000	2.1669803E+000	2.6427773E+001	2.1669803E+000	-2.676497562853307E-003
6.7372370E-001	2.4610630E-001	8.4210802E-003	2.4625033E-001	-1.9597392E+000	6.854692861580406E+001	-2.7766963E-004	-9.9790311E-001	2.8052430E+007	3.2805938E+004	1.000000000000000E+000	10	1.0472169E-002	4.2526517E-002	0	-2.197628526401727E-002	4.0585332E+000	1.3887183E-001	4.0609083E+000	1.9597392E+000	3.2805944E+007	9.5875443E+008	9.5931552E+008	-8.8040260E+001	0.0000000E+000	0.0000000E+000	0.0000000E+000	8.8040260E+001	0.0000000E+000	0.0000000E+000	0.0000000E+000	-8.8040260E+001	0.0000000E+000	0.0000000E+000	0.0000000E+000	-1.9597392E+000	0.0000000E+000	0.0000000E+000	0.0000000E+000	1.9597392E+000	2.9225027E+001	1.9597392E+000	-4.586124670228613E-003
5.0234693E-001	2.4761935E-001	7.4542384E-003	2.4773152E-001	-1.7242895E+000	7.877760680843085E+001	-2.7097366E-004	-9.7390479E-001	4.2502364E+007	3.8481953E+004	1.000000000000000E+000	10	1.0473672E-002	4.2278320E-002	0	-2.659611689260695E-002	4.0348005E+000	1.2146209E-001	4.0366282E+000	1.7242895E+000	3.8481944E+007	1.2783167E+009	1.2788957E+009	-8.8275711E+001	0.0000000E+000	0.0000000E+000	0.0000000E+000	8.8275711E+001	0.0000000E+000	0.0000000E+000	0.0000000E+000	-8.8275711E+001	0.0000000E+000	0.0000000E+000	0.0000000E+000	-1.7242895E+000	0.0000000E+000	0.0000000E+000	0.0000000E+000	1.7242895E+000	3.3218597E+001	1.7242895E+000	-4.619831628589682E-003
3.7502402E-001	2.4848191E-001	6.4161965E-003	2.4856474E-001	-1.4791391E+000	9.245886359157157E+001	-2.8009361E-004	-1.0084994E+000	6.6142924E+007	4.4071688E+004	1.000000000000000E+000	10	1.0477772E-002	4.2153090E-002	0	-2.930071656297064E-002	4.0217566E+000	1.0384812E-001	4.0230970E+000	1.4791391E+000	4.4071748E+007	1.7067770E+009	1.7073459E+009	-8.8520859E+001	0.0000000E+000	0.0000000E+000	0.0000000E+000	8.8520859E+001	0.0000000E+000	0.0000000E+000	0.0000000E+000	-8.8520859E+001	0.0000000E+000	0.0000000E+000	0.0000000E+000	-1.4791391E+000	0.0000000E+000	0.0000000E+000	0.0000000E+000	1.4791391E+000	3.8727291E+001	1.4791391E+000	-2.704599670363694E-003
2.7983737E-001	2.4892092E-001	5.3344383E-003	2.4897806E-001	-1.2276752E+000	1.107688483812526E+002	-2.7817654E-004	-1.0234952E+000	1.0661682E+008	4.8941914E+004	1.000000000000000E+000	10	1.0476660E-002	4.2078648E-002	0	-3.009864502980436E-002	4.0154963E+000	8.6053103E-002	4.0164180E+000	1.2276752E+000	4.8941964E+007	2.2837768E+009	2.2843011E+009	-8.8772324E+001	0.0000000E+000	0.0000000E+000	0.0000000E+000	8.8772324E+001	0.0000000E+000	0.0000000E+000	0.0000000E+000	-8.8772324E+001	0.0000000E+000	0.0000000E+000	0.0000000E+000	-1.2276752E+000	0.0000000E+000	0.0000000E+000	0.0000000E+000	1.2276752E+000	4.6663006E+001	1.2276752E+000	-7.979284668337139E-004
2.0840003E-001	2.4894728E-001	4.2774957E-003	2.4898402E-001	-9.8437852E-001	1.353324040278967E+002	-2.7733058E-004	-9.8236221E-001	1.7853888E+008	5.2694949E+004	1.000000000000000E+000	10	1.0477023E-002	4.2079099E-002	0	-3.091530484824524E-002	4.0157294E+000	6.8999618E-002	4.0163221E+000	9.8437852E-001	5.2694760E+007	3.0668093E+009	3.0672620E+009	-8.9015625E+001	0.0000000E+000	0.0000000E+000	0.0000000E+000	8.9015625E+001	0.0000000E+000	0.0000000E+000	0.0000000E+000	-8.9015625E+001	0.0000000E+000	0.0000000E+000	0.0000000E+000	-9.8437852E-001	0.0000000E+000	0.0000000E+000	0.0000000E+000	9.8437852E-001	5.8199306E+001	9.8437852E-001	-8.166598184408853E-004
1.5541697E-001	2.4990043E-001	3.7882596E-003	2.4992914E-001	-8.6848456E-001	1.682452285245236E+002	-2.7589622E-004	-9.9045342E-001	2.7032237E+008	6.2105152E+004	1.000000000000000E+000	10	1.0475661E-002	4.1914523E-002	0	-3.602241804934645E-002	4.0006742E+000	6.0646527E-002	4.0011339E+000	8.6848456E-001	6.2105148E+007	4.0968955E+009	4.0973663E+009	-8.9131516E+001	0.0000000E+000	0.0000000E+000	0.0000000E+000	8.9131516E+001	0.0000000E+000	0.0000000E+000	0.0000000E+000	-8.9131516E+001	0.0000000E+000	0.0000000E+000	0.0000000E+000	-8.6848456E-001	0.0000000E+000	0.0000000E+000	0.0000000E+000	8.6848456E-001	6.5967079E+001	8.6848456E-001	-5.107113201101209E-003
1.1607092E-001	2.4869120E-001	2.8995427E-003	2.4870810E-001	-6.6799319E-001	2.122936075766629E+002	-2.7555018E-004	-1.0078943E+000	4.7289770E+008	6.4275633E+004	1.000000000000000E+000	10	1.0475832E-002	4.2120993E-002	0	-5.083183849332430E-002	4.0205045E+000	4.6875902E-002	4.0207777E+000	6.6799319E-001	6.4275480E+007	5.5128637E+009	5.5132385E+009	-8.9332008E+001	0.0000000E+000	0.0000000E+000	0.0000000E+000	8.9332008E+001	0.0000000E+000	0.0000000E+000	0.0000000E+000	-8.9332008E+001	0.0000000E+000	0.0000000E+000	0.0000000E+000	-6.6799319E-001	0.0000000E+000	0.0000000E+000	0.0000000E+000	6.6799319E-001	8.5769112E+001	6.6799319E-001	-1.480942044397785E-002
8.6509481E-002	2.4622913E-001	2.0968327E-003	2.4623805E-001	-4.8790640E-001	2.713726722495339E+002	-2.7430130E-004	-1.0109825E+000	8.7738995E+008	6.3622379E+004	1.000000000000000E+000	10	1.0474636E-002	4.2538658E-002	0	-7.917064366600290E-002	4.0609636E+000	3.4582268E-002	4.0611110E+000	4.8790640E-001	6.3622512E+007	7.4711168E+009	7.4713876E+009	-8.9512093E+001	0.0000000E+000	0.0000000E+000	0.0000000E+000	8.9512093E+001	0.0000000E+000	0.0000000E+000	0.0000000E+000	-8.9512093E+001	0.0000000E+000	0.0000000E+000	0.0000000E+000	-4.8790640E-001	0.0000000E+000	0.0000000E+000	0.0000000E+000	4.8790640E-001	1.1742908E+002	4.8790640E-001	-2.833880517267860E-002