EC-Lab ASCII FILE
Nb header lines : 3                           
freq/Hz	Re(Z)/Ohm	-Im(Z)/Ohm	|Z|/Ohm	Phase(Z)/deg	Re(Y)/Ohm-1	Im(Y)/Ohm-1	|Y|/Ohm-1	Phase(Y)/deg	Re(C)/nF	Im(C)/nF	|C|/nF	Phase(C)/deg	Re(M)	Im(M)	|M|	Phase(M)/deg	Re(Permittivity)	Im(Permittivity)	|Permittivity|	Phase(Permittivity)/deg	Re(Resistivity)/Ohm.cm	Im(Resistivity)/Ohm.cm	|Resistivity|/Ohm.cm	Phase(Resistivity)/deg	Re(Conductivity)/mS/cm	Im(Conductivity)/mS/cm	|Conductivity|/mS/cm	Phase(Conductivity)/deg	Tan(Delta)	Loss Angle(Delta)/deg	
1.0000000E+006	1.0000588E-001	1.1141954E-004	1.0000595E-001	-6.3834913E-002	9.9993982E+000	1.1140629E-002	9.9994049E+000	6.3834913E-002	1.7730926E+000	1.5914539E+003	1.5914548E+003	-8.9936165E+001	0.0000000E+000	0.0000000E+000	0.0000000E+000	8.9936165E+001	0.0000000E+000	0.0000000E+000	0.0000000E+000	-8.9936165E+001	0.0000000E+000	0.0000000E+000	0.0000000E+000	-6.3834913E-002	0.0000000E+000	0.0000000E+000	0.0000000E+000	6.3834913E-002	8.9756140E+002	8.9936165E+001
7.9432825E+005	1.0000686E-001	1.3953845E-004	1.0000696E-001	-7.9944104E-002	9.9992943E+000	1.3951902E-002	9.9993038E+000	7.9944104E-002	2.7953460E+000	2.0035005E+003	2.0035024E+003	-8.9920059E+001	0.0000000E+000	0.0000000E+000	0.0000000E+000	8.9920059E+001	0.0000000E+000	0.0000000E+000	0.0000000E+000	-8.9920059E+001	0.0000000E+000	0.0000000E+000	0.0000000E+000	-7.9944104E-002	0.0000000E+000	0.0000000E+000	0.0000000E+000	7.9944104E-002	7.1669757E+002	8.9920059E+001
6.3095738E+005	1.0000811E-001	1.7484701E-004	1.0000826E-001	-1.0017173E-001	9.9991589E+000	1.7481811E-002	9.9991741E+000	1.0017173E-001	4.4097724E+000	2.5222234E+003	2.5222273E+003	-8.9899826E+001	0.0000000E+000	0.0000000E+000	0.0000000E+000	8.9899826E+001	0.0000000E+000	0.0000000E+000	0.0000000E+000	-8.9899826E+001	0.0000000E+000	0.0000000E+000	0.0000000E+000	-1.0017173E-001	0.0000000E+000	0.0000000E+000	0.0000000E+000	1.0017173E-001	5.7197491E+002	8.9899826E+001
5.0118722E+005	1.0000975E-001	2.1919381E-004	1.0000999E-001	-1.2557635E-001	9.9989767E+000	2.1915000E-002	9.9990005E+000	1.2557635E-001	6.9594297E+000	3.1752336E+003	3.1752412E+003	-8.9874420E+001	0.0000000E+000	0.0000000E+000	0.0000000E+000	8.9874420E+001	0.0000000E+000	0.0000000E+000	0.0000000E+000	-8.9874420E+001	0.0000000E+000	0.0000000E+000	0.0000000E+000	-1.2557635E-001	0.0000000E+000	0.0000000E+000	0.0000000E+000	1.2557635E-001	4.5626175E+002	8.9874420E+001
3.9810716E+005	1.0001198E-001	2.7490253E-004	1.0001236E-001	-1.5748829E-001	9.9987259E+000	2.7483460E-002	9.9987640E+000	1.5748829E-001	1.0987152E+001	3.9972822E+003	3.9972974E+003	-8.9842514E+001	0.0000000E+000	0.0000000E+000	0.0000000E+000	8.9842514E+001	0.0000000E+000	0.0000000E+000	0.0000000E+000	-8.9842514E+001	0.0000000E+000	0.0000000E+000	0.0000000E+000	-1.5748829E-001	0.0000000E+000	0.0000000E+000	0.0000000E+000	1.5748829E-001	3.6380887E+002	8.9842514E+001
3.1622778E+005	1.0001509E-001	3.4489273E-004	1.0001568E-001	-1.9757839E-001	9.9983730E+000	3.4478460E-002	9.9984322E+000	1.9757839E-001	1.7352741E+001	5.0321025E+003	5.0321323E+003	-8.9802422E+001	0.0000000E+000	0.0000000E+000	0.0000000E+000	8.9802422E+001	0.0000000E+000	0.0000000E+000	0.0000000E+000	-8.9802422E+001	0.0000000E+000	0.0000000E+000	0.0000000E+000	-1.9757839E-001	0.0000000E+000	0.0000000E+000	0.0000000E+000	1.9757839E-001	2.8998898E+002	8.9802422E+001
2.5118864E+005	1.0001953E-001	4.3282975E-004	1.0002047E-001	-2.4794321E-001	9.9978600E+000	4.3265261E-002	9.9979534E+000	2.4794321E-001	2.7412836E+001	6.3347168E+003	6.3347759E+003	-8.9752060E+001	0.0000000E+000	0.0000000E+000	0.0000000E+000	8.9752060E+001	0.0000000E+000	0.0000000E+000	0.0000000E+000	-8.9752060E+001	0.0000000E+000	0.0000000E+000	0.0000000E+000	-2.4794321E-001	0.0000000E+000	0.0000000E+000	0.0000000E+000	2.4794321E-001	2.3108284E+002	8.9752060E+001
1.9952623E+005	1.0002604E-001	5.4330874E-004	1.0002752E-001	-3.1120890E-001	9.9971008E+000	5.4300990E-002	9.9972486E+000	3.1120890E-001	4.3314201E+001	7.9743311E+003	7.9744487E+003	-8.9688789E+001	0.0000000E+000	0.0000000E+000	0.0000000E+000	8.9688789E+001	0.0000000E+000	0.0000000E+000	0.0000000E+000	-8.9688789E+001	0.0000000E+000	0.0000000E+000	0.0000000E+000	-3.1120890E-001	0.0000000E+000	0.0000000E+000	0.0000000E+000	3.1120890E-001	1.8410535E+002	8.9688789E+001
1.5848931E+005	1.0003574E-001	6.8207859E-004	1.0003807E-001	-3.9065656E-001	9.9959612E+000	6.8155952E-002	9.9961939E+000	3.9065656E-001	6.8442017E+001	1.0037943E+004	1.0038177E+004	-8.9609344E+001	0.0000000E+000	0.0000000E+000	0.0000000E+000	8.9609344E+001	0.0000000E+000	0.0000000E+000	0.0000000E+000	-8.9609344E+001	0.0000000E+000	0.0000000E+000	0.0000000E+000	-3.9065656E-001	0.0000000E+000	0.0000000E+000	0.0000000E+000	3.9065656E-001	1.4666307E+002	8.9609344E+001
1.2589254E+005	1.0005044E-001	8.5630605E-004	1.0005411E-001	-4.9036789E-001	9.9942255E+000	8.5538007E-002	9.9945917E+000	4.9036789E-001	1.0813908E+002	1.2634827E+004	1.2635290E+004	-8.9509628E+001	0.0000000E+000	0.0000000E+000	0.0000000E+000	8.9509628E+001	0.0000000E+000	0.0000000E+000	0.0000000E+000	-8.9509628E+001	0.0000000E+000	0.0000000E+000	0.0000000E+000	-4.9036789E-001	0.0000000E+000	0.0000000E+000	0.0000000E+000	4.9036789E-001	1.1683958E+002	8.9509628E+001
1.0000000E+005	1.0007295E-001	1.0748759E-003	1.0007872E-001	-6.1538595E-001	9.9915581E+000	1.0731857E-001	9.9921341E+000	6.1538595E-001	1.7080307E+002	1.5902058E+004	1.5902975E+004	-8.9384613E+001	0.0000000E+000	0.0000000E+000	0.0000000E+000	8.9384613E+001	0.0000000E+000	0.0000000E+000	0.0000000E+000	-8.9384613E+001	0.0000000E+000	0.0000000E+000	0.0000000E+000	-6.1538595E-001	0.0000000E+000	0.0000000E+000	0.0000000E+000	6.1538595E-001	9.3101860E+001	8.9384613E+001
7.9432820E+004	1.0010769E-001	1.3487028E-003	1.0011677E-001	-7.7187181E-001	9.9874306E+000	1.3455585E-001	9.9883366E+000	7.7187181E-001	2.6960233E+002	2.0011234E+004	2.0013051E+004	-8.9228127E+001	0.0000000E+000	0.0000000E+000	0.0000000E+000	8.9228127E+001	0.0000000E+000	0.0000000E+000	0.0000000E+000	-8.9228127E+001	0.0000000E+000	0.0000000E+000	0.0000000E+000	-7.7187181E-001	0.0000000E+000	0.0000000E+000	0.0000000E+000	7.7187181E-001	7.4225166E+001	8.9228127E+001
6.3095734E+004	1.0016157E-001	1.6909951E-003	1.0017585E-001	-9.6721399E-001	9.9810238E+000	1.6850635E-001	9.9824457E+000	9.6721399E-001	4.2504758E+002	2.5176492E+004	2.5180080E+004	-8.9032784E+001	0.0000000E+000	0.0000000E+000	0.0000000E+000	8.9032784E+001	0.0000000E+000	0.0000000E+000	0.0000000E+000	-8.9032784E+001	0.0000000E+000	0.0000000E+000	0.0000000E+000	-9.6721399E-001	0.0000000E+000	0.0000000E+000	0.0000000E+000	9.6721399E-001	5.9232327E+001	8.9032784E+001
5.0118723E+004	1.0024537E-001	2.1173414E-003	1.0026773E-001	-1.2099979E+000	9.9710741E+000	2.1060491E-001	9.9732981E+000	1.2099979E+000	6.6878894E+002	3.1663732E+004	3.1670795E+004	-8.8790001E+001	0.0000000E+000	0.0000000E+000	0.0000000E+000	8.8790001E+001	0.0000000E+000	0.0000000E+000	0.0000000E+000	-8.8790001E+001	0.0000000E+000	0.0000000E+000	0.0000000E+000	-1.2099979E+000	0.0000000E+000	0.0000000E+000	0.0000000E+000	1.2099979E+000	4.7344925E+001	8.8790001E+001
3.9810719E+004	1.0037562E-001	2.6453503E-003	1.0041048E-001	-1.5096527E+000	9.9556627E+000	2.6237661E-001	9.9591198E+000	1.5096527E+000	1.0489259E+003	3.9800664E+004	3.9814484E+004	-8.8490349E+001	0.0000000E+000	0.0000000E+000	0.0000000E+000	8.8490349E+001	0.0000000E+000	0.0000000E+000	0.0000000E+000	-8.8490349E+001	0.0000000E+000	0.0000000E+000	0.0000000E+000	-1.5096527E+000	0.0000000E+000	0.0000000E+000	0.0000000E+000	1.5096527E+000	3.7944172E+001	8.8490349E+001
3.1622777E+004	1.0057740E-001	3.2933445E-003	1.0063130E-001	-1.8754447E+000	9.9319420E+000	3.2521528E-001	9.9372654E+000	1.8754447E+000	1.6367810E+003	4.9986684E+004	5.0013473E+004	-8.8124557E+001	0.0000000E+000	0.0000000E+000	0.0000000E+000	8.8124557E+001	0.0000000E+000	0.0000000E+000	0.0000000E+000	-8.8124557E+001	0.0000000E+000	0.0000000E+000	0.0000000E+000	-1.8754447E+000	0.0000000E+000	0.0000000E+000	0.0000000E+000	1.8754447E+000	3.0539593E+001	8.8124557E+001
2.5118865E+004	1.0088760E-001	4.0772362E-003	1.0096995E-001	-2.3142724E+000	9.8958597E+000	3.9992782E-001	9.9039373E+000	2.3142724E+000	2.5339690E+003	6.2700875E+004	6.2752059E+004	-8.7685730E+001	0.0000000E+000	0.0000000E+000	0.0000000E+000	8.7685730E+001	0.0000000E+000	0.0000000E+000	0.0000000E+000	-8.7685730E+001	0.0000000E+000	0.0000000E+000	0.0000000E+000	-2.3142724E+000	0.0000000E+000	0.0000000E+000	0.0000000E+000	2.3142724E+000	2.4744114E+001	8.7685730E+001
1.9952623E+004	1.0135823E-001	5.0042951E-003	1.0148169E-001	-2.8265328E+000	9.8420057E+000	4.8592311E-001	9.8539944E+000	2.8265328E+000	3.8760315E+003	7.8506164E+004	7.8601789E+004	-8.7173470E+001	0.0000000E+000	0.0000000E+000	0.0000000E+000	8.7173470E+001	0.0000000E+000	0.0000000E+000	0.0000000E+000	-8.7173470E+001	0.0000000E+000	0.0000000E+000	0.0000000E+000	-2.8265328E+000	0.0000000E+000	0.0000000E+000	0.0000000E+000	2.8265328E+000	2.0254246E+001	8.7173470E+001
1.5848932E+004	1.0205739E-001	6.0623838E-003	1.0223729E-001	-3.3994727E+000	9.7639561E+000	5.7999569E-001	9.7811670E+000	3.3994727E+000	5.8243198E+003	9.8049625E+004	9.8222461E+004	-8.6600525E+001	0.0000000E+000	0.0000000E+000	0.0000000E+000	8.6600525E+001	0.0000000E+000	0.0000000E+000	0.0000000E+000	-8.6600525E+001	0.0000000E+000	0.0000000E+000	0.0000000E+000	-3.3994727E+000	0.0000000E+000	0.0000000E+000	0.0000000E+000	3.3994727E+000	1.6834532E+001	8.6600525E+001
1.2589254E+004	1.0306344E-001	7.2045210E-003	1.0331495E-001	-3.9986849E+000	9.6555786E+000	6.7496115E-001	9.6791410E+000	3.9986849E+000	8.5329502E+003	1.2206705E+005	1.2236493E+005	-8.6001312E+001	0.0000000E+000	0.0000000E+000	0.0000000E+000	8.6001312E+001	0.0000000E+000	0.0000000E+000	0.0000000E+000	-8.6001312E+001	0.0000000E+000	0.0000000E+000	0.0000000E+000	-3.9986849E+000	0.0000000E+000	0.0000000E+000	0.0000000E+000	3.9986849E+000	1.4305385E+001	8.6001312E+001
1.0000000E+004	1.0444584E-001	8.3331475E-003	1.0477775E-001	-4.5616455E+000	9.5137787E+000	7.5905097E-001	9.5440111E+000	4.5616455E+000	1.2080673E+004	1.5141652E+005	1.5189767E+005	-8.5438354E+001	0.0000000E+000	0.0000000E+000	0.0000000E+000	8.5438354E+001	0.0000000E+000	0.0000000E+000	0.0000000E+000	-8.5438354E+001	0.0000000E+000	0.0000000E+000	0.0000000E+000	-4.5616455E+000	0.0000000E+000	0.0000000E+000	0.0000000E+000	4.5616455E+000	1.2533781E+001	8.5438354E+001
7.9432822E+003	1.0622904E-001	9.2969006E-003	1.0663509E-001	-5.0016398E+000	9.3420677E+000	8.1759441E-001	9.3777761E+000	5.0016398E+000	1.6381668E+004	1.8718161E+005	1.8789708E+005	-8.4998360E+001	0.0000000E+000	0.0000000E+000	0.0000000E+000	8.4998360E+001	0.0000000E+000	0.0000000E+000	0.0000000E+000	-8.4998360E+001	0.0000000E+000	0.0000000E+000	0.0000000E+000	-5.0016398E+000	0.0000000E+000	0.0000000E+000	0.0000000E+000	5.0016398E+000	1.1426286E+001	8.4998360E+001
6.3095732E+003	1.0835026E-001	9.9185100E-003	1.0880329E-001	-5.2303452E+000	9.1526308E+000	8.3784246E-001	9.1908989E+000	5.2303452E+000	2.1134043E+004	2.3086922E+005	2.3183452E+005	-8.4769653E+001	0.0000000E+000	0.0000000E+000	0.0000000E+000	8.4769653E+001	0.0000000E+000	0.0000000E+000	0.0000000E+000	-8.4769653E+001	0.0000000E+000	0.0000000E+000	0.0000000E+000	-5.2303452E+000	0.0000000E+000	0.0000000E+000	0.0000000E+000	5.2303452E+000	1.0924047E+001	8.4769653E+001
5.0118726E+003	1.1064324E-001	1.0058986E-002	1.1109954E-001	-5.1946912E+000	8.9639683E+000	8.1494761E-001	9.0009375E+000	5.1946912E+000	2.5879154E+004	2.8465606E+005	2.8583003E+005	-8.4805305E+001	0.0000000E+000	0.0000000E+000	0.0000000E+000	8.4805305E+001	0.0000000E+000	0.0000000E+000	0.0000000E+000	-8.4805305E+001	0.0000000E+000	0.0000000E+000	0.0000000E+000	-5.1946912E+000	0.0000000E+000	0.0000000E+000	0.0000000E+000	5.1946912E+000	1.0999442E+001	8.4805305E+001
3.9810718E+003	1.1287922E-001	9.6857874E-003	1.1329401E-001	-4.9043460E+000	8.7942762E+000	7.5460744E-001	8.8265924E+000	4.9043460E+000	3.0167607E+004	3.5157681E+005	3.5286872E+005	-8.5095657E+001	0.0000000E+000	0.0000000E+000	0.0000000E+000	8.5095657E+001	0.0000000E+000	0.0000000E+000	0.0000000E+000	-8.5095657E+001	0.0000000E+000	0.0000000E+000	0.0000000E+000	-4.9043460E+000	0.0000000E+000	0.0000000E+000	0.0000000E+000	4.9043460E+000	1.1654108E+001	8.5095657E+001
3.1622776E+003	1.1485141E-001	8.8907648E-003	1.1519501E-001	-4.4264970E+000	8.6550369E+000	6.6999525E-001	8.6809311E+000	4.4264970E+000	3.3720348E+004	4.3560122E+005	4.3690444E+005	-8.5573502E+001	0.0000000E+000	0.0000000E+000	0.0000000E+000	8.5573502E+001	0.0000000E+000	0.0000000E+000	0.0000000E+000	-8.5573502E+001	0.0000000E+000	0.0000000E+000	0.0000000E+000	-4.4264970E+000	0.0000000E+000	0.0000000E+000	0.0000000E+000	4.4264970E+000	1.2918057E+001	8.5573502E+001
2.5118865E+003	1.1644356E-001	7.8415694E-003	1.1670730E-001	-3.8526089E+000	8.5490808E+000	5.7571423E-001	8.5684443E+000	3.8526089E+000	3.6477660E+004	5.4167600E+005	5.4290288E+005	-8.6147392E+001	0.0000000E+000	0.0000000E+000	0.0000000E+000	8.6147392E+001	0.0000000E+000	0.0000000E+000	0.0000000E+000	-8.6147392E+001	0.0000000E+000	0.0000000E+000	0.0000000E+000	-3.8526089E+000	0.0000000E+000	0.0000000E+000	0.0000000E+000	3.8526089E+000	1.4849523E+001	8.6147392E+001
1.9952623E+003	1.1764066E-001	6.7089144E-003	1.1783180E-001	-3.2639785E+000	8.4729061E+000	4.8320031E-001	8.4866734E+000	3.2639785E+000	3.8543145E+004	6.7585344E+005	6.7695156E+005	-8.6736023E+001	0.0000000E+000	0.0000000E+000	0.0000000E+000	8.6736023E+001	0.0000000E+000	0.0000000E+000	0.0000000E+000	-8.6736023E+001	0.0000000E+000	0.0000000E+000	0.0000000E+000	-3.2639785E+000	0.0000000E+000	0.0000000E+000	0.0000000E+000	3.2639785E+000	1.7534977E+001	8.6736023E+001
1.5848932E+003	1.1849489E-001	5.6189592E-003	1.1862804E-001	-2.7148991E+000	8.4202490E+000	3.9928332E-001	8.4297104E+000	2.7148991E+000	4.0095996E+004	8.4556119E+005	8.4651131E+005	-8.7285103E+001	0.0000000E+000	0.0000000E+000	0.0000000E+000	8.7285103E+001	0.0000000E+000	0.0000000E+000	0.0000000E+000	-8.7285103E+001	0.0000000E+000	0.0000000E+000	0.0000000E+000	-2.7148991E+000	0.0000000E+000	0.0000000E+000	0.0000000E+000	2.7148991E+000	2.1088406E+001	8.7285103E+001
1.2589254E+003	1.1908371E-001	4.6429415E-003	1.1917419E-001	-2.2327676E+000	8.3847084E+000	3.2691044E-001	8.3910789E+000	2.2327676E+000	4.1328383E+004	1.0600054E+006	1.0608108E+006	-8.7767235E+001	0.0000000E+000	0.0000000E+000	0.0000000E+000	8.7767235E+001	0.0000000E+000	0.0000000E+000	0.0000000E+000	-8.7767235E+001	0.0000000E+000	0.0000000E+000	0.0000000E+000	-2.2327676E+000	0.0000000E+000	0.0000000E+000	0.0000000E+000	2.2327676E+000	2.5648333E+001	8.7767235E+001
1.0000000E+003	1.1948198E-001	3.8087689E-003	1.1954267E-001	-1.8258194E+000	8.3609667E+000	2.6652545E-001	8.3652134E+000	1.8258194E+000	4.2418883E+004	1.3306893E+006	1.3313651E+006	-8.8174179E+001	0.0000000E+000	0.0000000E+000	0.0000000E+000	8.8174179E+001	0.0000000E+000	0.0000000E+000	0.0000000E+000	-8.8174179E+001	0.0000000E+000	0.0000000E+000	0.0000000E+000	-1.8258194E+000	0.0000000E+000	0.0000000E+000	0.0000000E+000	1.8258194E+000	3.1370235E+001	8.8174179E+001
7.9432825E+002	1.1975020E-001	3.1176198E-003	1.1979078E-001	-1.4913220E+000	8.3450603E+000	2.1725830E-001	8.3478880E+000	1.4913220E+000	4.3530883E+004	1.6720514E+006	1.6726179E+006	-8.8508675E+001	0.0000000E+000	0.0000000E+000	0.0000000E+000	8.8508675E+001	0.0000000E+000	0.0000000E+000	0.0000000E+000	-8.8508675E+001	0.0000000E+000	0.0000000E+000	0.0000000E+000	-1.4913220E+000	0.0000000E+000	0.0000000E+000	0.0000000E+000	1.4913220E+000	3.8410778E+001	8.8508675E+001
6.3095734E+002	1.1993281E-001	2.5572388E-003	1.1996007E-001	-1.2214905E+000	8.3342133E+000	1.7770427E-001	8.3361073E+000	1.2214905E+000	4.4824707E+004	2.1022520E+006	2.1027298E+006	-8.8778511E+001	0.0000000E+000	0.0000000E+000	0.0000000E+000	8.8778511E+001	0.0000000E+000	0.0000000E+000	0.0000000E+000	-8.8778511E+001	0.0000000E+000	0.0000000E+000	0.0000000E+000	-1.2214905E+000	0.0000000E+000	0.0000000E+000	0.0000000E+000	1.2214905E+000	4.6899338E+001	8.8778511E+001
5.0118723E+002	1.2006068E-001	2.1103187E-003	1.2007923E-001	-1.0069901E+000	8.3265486E+000	1.4635660E-001	8.3278351E+000	1.0069901E+000	4.6476328E+004	2.6441445E+006	2.6445530E+006	-8.8993011E+001	0.0000000E+000	0.0000000E+000	0.0000000E+000	8.8993011E+001	0.0000000E+000	0.0000000E+000	0.0000000E+000	-8.8993011E+001	0.0000000E+000	0.0000000E+000	0.0000000E+000	-1.0069901E+000	0.0000000E+000	0.0000000E+000	0.0000000E+000	1.0069901E+000	5.6892204E+001	8.8993011E+001
3.9810718E+002	1.2015460E-001	1.7590176E-003	1.2016747E-001	-8.3872849E-001	8.3208275E+000	1.2181375E-001	8.3217192E+000	8.3872849E-001	4.8698676E+004	3.3264933E+006	3.3268498E+006	-8.9161270E+001	0.0000000E+000	0.0000000E+000	0.0000000E+000	8.9161270E+001	0.0000000E+000	0.0000000E+000	0.0000000E+000	-8.9161270E+001	0.0000000E+000	0.0000000E+000	0.0000000E+000	-8.3872849E-001	0.0000000E+000	0.0000000E+000	0.0000000E+000	8.3872849E-001	6.8307785E+001	8.9161270E+001
3.1622775E+002	1.2022831E-001	1.4870521E-003	1.2023751E-001	-7.0863062E-001	8.3162365E+000	1.0285994E-001	8.3168726E+000	7.0863062E-001	5.1768805E+004	4.1854965E+006	4.1858168E+006	-8.9291367E+001	0.0000000E+000	0.0000000E+000	0.0000000E+000	8.9291367E+001	0.0000000E+000	0.0000000E+000	0.0000000E+000	-8.9291367E+001	0.0000000E+000	0.0000000E+000	0.0000000E+000	-7.0863062E-001	0.0000000E+000	0.0000000E+000	0.0000000E+000	7.0863062E-001	8.0850105E+001	8.9291367E+001
2.5118864E+002	1.2029088E-001	1.2804614E-003	1.2029770E-001	-6.0987389E-001	8.3122396E+000	8.8481382E-002	8.3127108E+000	6.0987389E-001	5.6062172E+004	5.2666955E+006	5.2669940E+006	-8.9390129E+001	0.0000000E+000	0.0000000E+000	0.0000000E+000	8.9390129E+001	0.0000000E+000	0.0000000E+000	0.0000000E+000	-8.9390129E+001	0.0000000E+000	0.0000000E+000	0.0000000E+000	-6.0987389E-001	0.0000000E+000	0.0000000E+000	0.0000000E+000	6.0987389E-001	9.3943382E+001	8.9390129E+001
1.9952623E+002	1.2034832E-001	1.1277064E-003	1.2035361E-001	-5.3686601E-001	8.3084850E+000	7.7853441E-002	8.3088493E+000	5.3686601E-001	6.2100820E+004	6.6273815E+006	6.6276725E+006	-8.9463135E+001	0.0000000E+000	0.0000000E+000	0.0000000E+000	8.9463135E+001	0.0000000E+000	0.0000000E+000	0.0000000E+000	-8.9463135E+001	0.0000000E+000	0.0000000E+000	0.0000000E+000	-5.3686601E-001	0.0000000E+000	0.0000000E+000	0.0000000E+000	5.3686601E-001	1.0671955E+002	8.9463135E+001
1.5848932E+002	1.2040469E-001	1.0194794E-003	1.2040900E-001	-4.8511791E-001	8.3047295E+000	7.0317030E-002	8.3050270E+000	4.8511791E-001	7.0611930E+004	8.3396070E+006	8.3399060E+006	-8.9514885E+001	0.0000000E+000	0.0000000E+000	0.0000000E+000	8.9514885E+001	0.0000000E+000	0.0000000E+000	0.0000000E+000	-8.9514885E+001	0.0000000E+000	0.0000000E+000	0.0000000E+000	-4.8511791E-001	0.0000000E+000	0.0000000E+000	0.0000000E+000	4.8511791E-001	1.1810410E+002	8.9514885E+001
1.2589254E+002	1.2046282E-001	9.4841351E-004	1.2046655E-001	-4.5108497E-001	8.3008022E+000	6.5352887E-002	8.3010597E+000	4.5108497E-001	8.2620484E+004	1.0493979E+007	1.0494304E+007	-8.9548912E+001	0.0000000E+000	0.0000000E+000	0.0000000E+000	8.9548912E+001	0.0000000E+000	0.0000000E+000	0.0000000E+000	-8.9548912E+001	0.0000000E+000	0.0000000E+000	0.0000000E+000	-4.5108497E-001	0.0000000E+000	0.0000000E+000	0.0000000E+000	4.5108497E-001	1.2701508E+002	8.9548912E+001
1.0000000E+002	1.2052482E-001	9.0878026E-004	1.2052824E-001	-4.3201298E-001	8.2965746E+000	6.2557764E-002	8.2968102E+000	4.3201298E-001	9.9564125E+004	1.3204410E+007	1.3204785E+007	-8.9567986E+001	0.0000000E+000	0.0000000E+000	0.0000000E+000	8.9567986E+001	0.0000000E+000	0.0000000E+000	0.0000000E+000	-8.9567986E+001	0.0000000E+000	0.0000000E+000	0.0000000E+000	-4.3201298E-001	0.0000000E+000	0.0000000E+000	0.0000000E+000	4.3201298E-001	1.3262262E+002	8.9567986E+001
7.9432823E+001	1.2059235E-001	8.9621503E-004	1.2059568E-001	-4.2580143E-001	8.2919426E+000	6.1623842E-002	8.2921715E+000	4.2580143E-001	1.2347290E+005	1.6614084E+007	1.6614543E+007	-8.9574196E+001	0.0000000E+000	0.0000000E+000	0.0000000E+000	8.9574196E+001	0.0000000E+000	0.0000000E+000	0.0000000E+000	-8.9574196E+001	0.0000000E+000	0.0000000E+000	0.0000000E+000	-4.2580143E-001	0.0000000E+000	0.0000000E+000	0.0000000E+000	4.2580143E-001	1.3455739E+002	8.9574196E+001
6.3095734E+001	1.2066682E-001	9.0748310E-004	1.2067024E-001	-4.3088871E-001	8.2868128E+000	6.2321544E-002	8.2870474E+000	4.3088871E-001	1.5720086E+005	2.0902954E+007	2.0903546E+007	-8.9569115E+001	0.0000000E+000	0.0000000E+000	0.0000000E+000	8.9569115E+001	0.0000000E+000	0.0000000E+000	0.0000000E+000	-8.9569115E+001	0.0000000E+000	0.0000000E+000	0.0000000E+000	-4.3088871E-001	0.0000000E+000	0.0000000E+000	0.0000000E+000	4.3088871E-001	1.3296867E+002	8.9569115E+001
5.0118725E+001	1.2074958E-001	9.4028754E-004	1.2075324E-001	-4.4615823E-001	8.2811003E+000	6.4485647E-002	8.2813511E+000	4.4615823E-001	2.0477850E+005	2.6297120E+007	2.6297918E+007	-8.9553841E+001	0.0000000E+000	0.0000000E+000	0.0000000E+000	8.9553841E+001	0.0000000E+000	0.0000000E+000	0.0000000E+000	-8.9553841E+001	0.0000000E+000	0.0000000E+000	0.0000000E+000	-4.4615823E-001	0.0000000E+000	0.0000000E+000	0.0000000E+000	4.4615823E-001	1.2841771E+002	8.9553841E+001
3.9810719E+001	1.2084191E-001	9.9311559E-004	1.2084600E-001	-4.7086355E-001	8.2747154E+000	6.8004131E-002	8.2749949E+000	4.7086355E-001	2.7186619E+005	3.3080584E+007	3.3081702E+007	-8.9529137E+001	0.0000000E+000	0.0000000E+000	0.0000000E+000	8.9529137E+001	0.0000000E+000	0.0000000E+000	0.0000000E+000	-8.9529137E+001	0.0000000E+000	0.0000000E+000	0.0000000E+000	-4.7086355E-001	0.0000000E+000	0.0000000E+000	0.0000000E+000	4.7086355E-001	1.2167960E+002	8.9529137E+001
3.1622776E+001	1.2094520E-001	1.0651186E-003	1.2094989E-001	-5.0456923E-001	8.2675667E+000	7.2809331E-002	8.2678871E+000	5.0456923E-001	3.6644425E+005	4.1610016E+007	4.1611628E+007	-8.9495430E+001	0.0000000E+000	0.0000000E+000	0.0000000E+000	8.9495430E+001	0.0000000E+000	0.0000000E+000	0.0000000E+000	-8.9495430E+001	0.0000000E+000	0.0000000E+000	0.0000000E+000	-5.0456923E-001	0.0000000E+000	0.0000000E+000	0.0000000E+000	5.0456923E-001	1.1355093E+002	8.9495430E+001
2.5118864E+001	1.2106088E-001	1.1560197E-003	1.2106640E-001	-5.4710525E-001	8.2595539E+000	7.8871131E-002	8.2599306E+000	5.4710525E-001	4.9973191E+005	5.2333132E+007	5.2335516E+007	-8.9452896E+001	0.0000000E+000	0.0000000E+000	0.0000000E+000	8.9452896E+001	0.0000000E+000	0.0000000E+000	0.0000000E+000	-8.9452896E+001	0.0000000E+000	0.0000000E+000	0.0000000E+000	-5.4710525E-001	0.0000000E+000	0.0000000E+000	0.0000000E+000	5.4710525E-001	1.0472215E+002	8.9452896E+001
1.9952623E+001	1.2119055E-001	1.2660458E-003	1.2119716E-001	-5.9853226E-001	8.2505684E+000	8.6191528E-002	8.2510185E+000	5.9853226E-001	6.8752063E+005	6.5811836E+007	6.5815428E+007	-8.9401466E+001	0.0000000E+000	0.0000000E+000	0.0000000E+000	8.9401466E+001	0.0000000E+000	0.0000000E+000	0.0000000E+000	-8.9401466E+001	0.0000000E+000	0.0000000E+000	0.0000000E+000	-5.9853226E-001	0.0000000E+000	0.0000000E+000	0.0000000E+000	5.9853226E-001	9.5723663E+001	8.9401466E+001
1.5848932E+001	1.2133595E-001	1.3958787E-003	1.2134398E-001	-6.5911573E-001	8.2404900E+000	9.4800636E-002	8.2410355E+000	6.5911573E-001	9.5199194E+005	8.2750984E+007	8.2756456E+007	-8.9340881E+001	0.0000000E+000	0.0000000E+000	0.0000000E+000	8.9340881E+001	0.0000000E+000	0.0000000E+000	0.0000000E+000	-8.9340881E+001	0.0000000E+000	0.0000000E+000	0.0000000E+000	-6.5911573E-001	0.0000000E+000	0.0000000E+000	0.0000000E+000	6.5911573E-001	8.6924423E+001	8.9340881E+001
1.2589254E+001	1.2149905E-001	1.5466230E-003	1.2150890E-001	-7.2930759E-001	8.2291832E+000	1.0475343E-001	8.2298498E+000	7.2930759E-001	1.3243089E+006	1.0403437E+008	1.0404280E+008	-8.9270691E+001	0.0000000E+000	0.0000000E+000	0.0000000E+000	8.9270691E+001	0.0000000E+000	0.0000000E+000	0.0000000E+000	-8.9270691E+001	0.0000000E+000	0.0000000E+000	0.0000000E+000	-7.2930759E-001	0.0000000E+000	0.0000000E+000	0.0000000E+000	7.2930759E-001	7.8557640E+001	8.9270691E+001
1.0000000E+001	1.2168202E-001	1.7197874E-003	1.2169417E-001	-8.0973339E-001	8.2165003E+000	1.1612753E-001	8.2173204E+000	8.0973339E-001	1.8482205E+006	1.3076966E+008	1.3078272E+008	-8.9190269E+001	0.0000000E+000	0.0000000E+000	0.0000000E+000	8.9190269E+001	0.0000000E+000	0.0000000E+000	0.0000000E+000	-8.9190269E+001	0.0000000E+000	0.0000000E+000	0.0000000E+000	-8.0973339E-001	0.0000000E+000	0.0000000E+000	0.0000000E+000	8.0973339E-001	7.0754105E+001	8.9190269E+001
7.9432821E+000	1.2188729E-001	1.9172796E-003	1.2190237E-001	-9.0118480E-001	8.2022715E+000	1.2902123E-001	8.2032862E+000	9.0118480E-001	2.5851215E+006	1.6434414E+008	1.6436448E+008	-8.9098816E+001	0.0000000E+000	0.0000000E+000	0.0000000E+000	8.9098816E+001	0.0000000E+000	0.0000000E+000	0.0000000E+000	-8.9098816E+001	0.0000000E+000	0.0000000E+000	0.0000000E+000	-9.0118480E-001	0.0000000E+000	0.0000000E+000	0.0000000E+000	9.0118480E-001	6.3573040E+001	8.9098816E+001
6.3095737E+000	1.2211759E-001	2.1414103E-003	1.2213637E-001	-1.0046152E+000	8.1863108E+000	1.4355220E-001	8.1875696E+000	1.0046152E+000	3.6210145E+006	2.0649445E+008	2.0652619E+008	-8.8995384E+001	0.0000000E+000	0.0000000E+000	0.0000000E+000	8.8995384E+001	0.0000000E+000	0.0000000E+000	0.0000000E+000	-8.8995384E+001	0.0000000E+000	0.0000000E+000	0.0000000E+000	-1.0046152E+000	0.0000000E+000	0.0000000E+000	0.0000000E+000	1.0046152E+000	5.7026714E+001	8.8995384E+001
5.0118723E+000	1.2237599E-001	2.3949076E-003	1.2239943E-001	-1.1211396E+000	8.1684084E+000	1.5985638E-001	8.1699724E+000	1.1211396E+000	5.0763325E+006	2.5939261E+008	2.5944227E+008	-8.8878860E+001	0.0000000E+000	0.0000000E+000	0.0000000E+000	8.8878860E+001	0.0000000E+000	0.0000000E+000	0.0000000E+000	-8.8878860E+001	0.0000000E+000	0.0000000E+000	0.0000000E+000	-1.1211396E+000	0.0000000E+000	0.0000000E+000	0.0000000E+000	1.1211396E+000	5.1098419E+001	8.8878860E+001
3.9810717E+000	1.2266592E-001	2.6809389E-003	1.2269522E-001	-1.2520350E+000	8.1483316E+000	1.7808677E-001	8.1502771E+000	1.2520350E+000	7.1195490E+006	3.2575328E+008	3.2583107E+008	-8.8747963E+001	0.0000000E+000	0.0000000E+000	0.0000000E+000	8.8747963E+001	0.0000000E+000	0.0000000E+000	0.0000000E+000	-8.8747963E+001	0.0000000E+000	0.0000000E+000	0.0000000E+000	-1.2520350E+000	0.0000000E+000	0.0000000E+000	0.0000000E+000	1.2520350E+000	4.5754837E+001	8.8747963E+001
3.1622777E+000	1.2299122E-001	3.0031314E-003	1.2302788E-001	-1.3987386E+000	8.1258173E+000	1.9841170E-001	8.1282396E+000	1.3987386E+000	9.9858790E+006	4.0896598E+008	4.0908787E+008	-8.8601265E+001	0.0000000E+000	0.0000000E+000	0.0000000E+000	8.8601265E+001	0.0000000E+000	0.0000000E+000	0.0000000E+000	-8.8601265E+001	0.0000000E+000	0.0000000E+000	0.0000000E+000	-1.3987386E+000	0.0000000E+000	0.0000000E+000	0.0000000E+000	1.3987386E+000	4.0954327E+001	8.8601265E+001
2.5118864E+000	1.2335614E-001	3.3656685E-003	1.2340204E-001	-1.5628793E+000	8.1005793E+000	2.2101748E-001	8.1035938E+000	1.5628793E+000	1.4003846E+007	5.1325853E+008	5.1344954E+008	-8.8437119E+001	0.0000000E+000	0.0000000E+000	0.0000000E+000	8.8437119E+001	0.0000000E+000	0.0000000E+000	0.0000000E+000	-8.8437119E+001	0.0000000E+000	0.0000000E+000	0.0000000E+000	-1.5628793E+000	0.0000000E+000	0.0000000E+000	0.0000000E+000	1.5628793E+000	3.6651306E+001	8.8437119E+001
1.9952623E+000	1.2376562E-001	3.7734867E-003	1.2382313E-001	-1.7463485E+000	8.0722847E+000	2.4611567E-001	8.0760355E+000	1.7463485E+000	1.9631734E+007	6.4389728E+008	6.4419648E+008	-8.8253654E+001	0.0000000E+000	0.0000000E+000	0.0000000E+000	8.8253654E+001	0.0000000E+000	0.0000000E+000	0.0000000E+000	-8.8253654E+001	0.0000000E+000	0.0000000E+000	0.0000000E+000	-1.7463485E+000	0.0000000E+000	0.0000000E+000	0.0000000E+000	1.7463485E+000	3.2798740E+001	8.8253654E+001
1.5848932E+000	1.2422584E-001	4.2318706E-003	1.2429790E-001	-1.9510803E+000	8.0405235E+000	2.7390805E-001	8.0451880E+000	1.9510803E+000	2.7505840E+007	8.0742925E+008	8.0789760E+008	-8.8048920E+001	0.0000000E+000	0.0000000E+000	0.0000000E+000	8.8048920E+001	0.0000000E+000	0.0000000E+000	0.0000000E+000	-8.8048920E+001	0.0000000E+000	0.0000000E+000	0.0000000E+000	-1.9510803E+000	0.0000000E+000	0.0000000E+000	0.0000000E+000	1.9510803E+000	2.9354830E+001	8.8048920E+001
1.2589254E+000	1.2474361E-001	4.7449321E-003	1.2483382E-001	-2.1783366E+000	8.0048609E+000	3.0448470E-001	8.0106497E+000	2.1783366E+000	3.8493348E+007	1.0119846E+009	1.0127164E+009	-8.7821663E+001	0.0000000E+000	0.0000000E+000	0.0000000E+000	8.7821663E+001	0.0000000E+000	0.0000000E+000	0.0000000E+000	-8.7821663E+001	0.0000000E+000	0.0000000E+000	0.0000000E+000	-2.1783366E+000	0.0000000E+000	0.0000000E+000	0.0000000E+000	2.1783366E+000	2.6289862E+001	8.7821663E+001
1.0000000E+000	1.2532279E-001	5.3156591E-003	1.2543547E-001	-2.4287872E+000	7.9650650E+000	3.3784413E-001	7.9722266E+000	2.4287872E+000	5.3769564E+007	1.2676794E+009	1.2688192E+009	-8.7571213E+001	0.0000000E+000	0.0000000E+000	0.0000000E+000	8.7571213E+001	0.0000000E+000	0.0000000E+000	0.0000000E+000	-8.7571213E+001	0.0000000E+000	0.0000000E+000	0.0000000E+000	-2.4287872E+000	0.0000000E+000	0.0000000E+000	0.0000000E+000	2.4287872E+000	2.3576153E+001	8.7571213E+001
7.9432821E-001	1.2596084E-001	5.9519364E-003	1.2610139E-001	-2.7053437E+000	7.9212885E+000	3.7429890E-001	7.9301267E+000	2.7053437E+000	7.4996144E+007	1.5871427E+009	1.5889135E+009	-8.7294655E+001	0.0000000E+000	0.0000000E+000	0.0000000E+000	8.7294655E+001	0.0000000E+000	0.0000000E+000	0.0000000E+000	-8.7294655E+001	0.0000000E+000	0.0000000E+000	0.0000000E+000	-2.7053437E+000	0.0000000E+000	0.0000000E+000	0.0000000E+000	2.7053437E+000	2.1163002E+001	8.7294655E+001
6.3095737E-001	1.2665376E-001	6.6768392E-003	1.2682964E-001	-3.0176830E+000	7.8736591E+000	4.1507775E-001	7.8845925E+000	3.0176830E+000	1.0470075E+008	1.9860799E+009	1.9888378E+009	-8.6982315E+001	0.0000000E+000	0.0000000E+000	0.0000000E+000	8.6982315E+001	0.0000000E+000	0.0000000E+000	0.0000000E+000	-8.6982315E+001	0.0000000E+000	0.0000000E+000	0.0000000E+000	-3.0176830E+000	0.0000000E+000	0.0000000E+000	0.0000000E+000	3.0176830E+000	1.8969120E+001	8.6982315E+001
5.0118721E-001	1.2741180E-001	7.5329943E-003	1.2763429E-001	-3.3835714E+000	7.8212271E+000	4.6241602E-001	7.8348851E+000	3.3835714E+000	1.4684277E+008	2.4836767E+009	2.4880138E+009	-8.6616432E+001	0.0000000E+000	0.0000000E+000	0.0000000E+000	8.6616432E+001	0.0000000E+000	0.0000000E+000	0.0000000E+000	-8.6616432E+001	0.0000000E+000	0.0000000E+000	0.0000000E+000	-3.3835714E+000	0.0000000E+000	0.0000000E+000	0.0000000E+000	3.3835714E+000	1.6913832E+001	8.6616432E+001
3.9810717E-001	1.2827793E-001	8.5723754E-003	1.2856403E-001	-3.8231969E+000	7.7609153E+000	5.1863545E-001	7.7782254E+000	3.8231969E+000	2.0733962E+008	3.1026519E+009	3.1095721E+009	-8.6176804E+001	0.0000000E+000	0.0000000E+000	0.0000000E+000	8.6176804E+001	0.0000000E+000	0.0000000E+000	0.0000000E+000	-8.6176804E+001	0.0000000E+000	0.0000000E+000	0.0000000E+000	-3.8231969E+000	0.0000000E+000	0.0000000E+000	0.0000000E+000	3.8231969E+000	1.4964106E+001	8.6176804E+001
3.1622776E-001	1.2933759E-001	9.8334476E-003	1.2971087E-001	-4.3477941E+000	7.6872683E+000	5.8445770E-001	7.7094541E+000	4.3477941E+000	2.9415293E+008	3.8689416E+009	3.8801075E+009	-8.5652206E+001	0.0000000E+000	0.0000000E+000	0.0000000E+000	8.5652206E+001	0.0000000E+000	0.0000000E+000	0.0000000E+000	-8.5652206E+001	0.0000000E+000	0.0000000E+000	0.0000000E+000	-4.3477941E+000	0.0000000E+000	0.0000000E+000	0.0000000E+000	4.3477941E+000	1.3152822E+001	8.5652206E+001
2.5118864E-001	1.3071477E-001	1.1312771E-002	1.3120340E-001	-4.9463644E+000	7.5933690E+000	6.5717161E-001	7.6217537E+000	4.9463644E+000	4.1638877E+008	4.8112138E+009	4.8291983E+009	-8.5053635E+001	0.0000000E+000	0.0000000E+000	0.0000000E+000	8.5053635E+001	0.0000000E+000	0.0000000E+000	0.0000000E+000	-8.5053635E+001	0.0000000E+000	0.0000000E+000	0.0000000E+000	-4.9463644E+000	0.0000000E+000	0.0000000E+000	0.0000000E+000	4.9463644E+000	1.1554621E+001	8.5053635E+001
1.9952624E-001	1.3255242E-001	1.2935947E-002	1.3318214E-001	-5.5739121E+000	7.4730120E+000	7.2930008E-001	7.5085144E+000	5.5739121E+000	5.8173677E+008	5.9609549E+009	5.9892736E+009	-8.4426086E+001	0.0000000E+000	0.0000000E+000	0.0000000E+000	8.4426086E+001	0.0000000E+000	0.0000000E+000	0.0000000E+000	-8.4426086E+001	0.0000000E+000	0.0000000E+000	0.0000000E+000	-5.5739121E+000	0.0000000E+000	0.0000000E+000	0.0000000E+000	5.5739121E+000	1.0246827E+001	8.4426086E+001
1.5848932E-001	1.3497120E-001	1.4535110E-002	1.3575159E-001	-6.1465206E+000	7.3240495E+000	7.8873020E-001	7.3663964E+000	6.1465206E+000	7.9204294E+008	7.3548088E+009	7.3973335E+009	-8.3853477E+001	0.0000000E+000	0.0000000E+000	0.0000000E+000	8.3853477E+001	0.0000000E+000	0.0000000E+000	0.0000000E+000	-8.3853477E+001	0.0000000E+000	0.0000000E+000	0.0000000E+000	-6.1465206E+000	0.0000000E+000	0.0000000E+000	0.0000000E+000	6.1465206E+000	9.2858734E+000	8.3853477E+001
1.2589253E-001	1.3800482E-001	1.5852883E-002	1.3891236E-001	-6.5529552E+000	7.1517525E+000	8.2153571E-001	7.1987834E+000	6.5529552E+000	1.0385960E+009	9.0413363E+009	9.1007939E+009	-8.3447044E+001	0.0000000E+000	0.0000000E+000	0.0000000E+000	8.3447044E+001	0.0000000E+000	0.0000000E+000	0.0000000E+000	-8.3447044E+001	0.0000000E+000	0.0000000E+000	0.0000000E+000	-6.5529552E+000	0.0000000E+000	0.0000000E+000	0.0000000E+000	6.5529552E+000	8.7053452E+000	8.3447044E+001
1.0000000E-001	1.4153343E-001	1.6600439E-002	1.4250365E-001	-6.6896505E+000	6.9695878E+000	8.1746209E-001	7.0173640E+000	6.6896505E+000	1.3010316E+009	1.1092444E+010	1.1168482E+010	-8.3310349E+001	0.0000000E+000	0.0000000E+000	0.0000000E+000	8.3310349E+001	0.0000000E+000	0.0000000E+000	0.0000000E+000	-8.3310349E+001	0.0000000E+000	0.0000000E+000	0.0000000E+000	-6.6896505E+000	0.0000000E+000	0.0000000E+000	0.0000000E+000	6.6896505E+000	8.5258846E+000	8.3310349E+001
7.9432823E-002	1.4527039E-001	1.6569672E-002	1.4621231E-001	-6.5070872E+000	6.7953091E+000	7.7507913E-001	6.8393693E+000	6.5070872E+000	1.5529812E+009	1.3615367E+010	1.3703648E+010	-8.3492912E+001	0.0000000E+000	0.0000000E+000	0.0000000E+000	8.3492912E+001	0.0000000E+000	0.0000000E+000	0.0000000E+000	-8.3492912E+001	0.0000000E+000	0.0000000E+000	0.0000000E+000	-6.5070872E+000	0.0000000E+000	0.0000000E+000	0.0000000E+000	6.5070872E+000	8.7672462E+000	8.3492912E+001
6.3095734E-002	1.4884491E-001	1.5737107E-002	1.4967452E-001	-6.0353589E+000	6.6441317E+000	7.0247221E-001	6.6811638E+000	6.0353589E+000	1.7719421E+009	1.6759395E+010	1.6852808E+010	-8.3964638E+001	0.0000000E+000	0.0000000E+000	0.0000000E+000	8.3964638E+001	0.0000000E+000	0.0000000E+000	0.0000000E+000	-8.3964638E+001	0.0000000E+000	0.0000000E+000	0.0000000E+000	-6.0353589E+000	0.0000000E+000	0.0000000E+000	0.0000000E+000	6.0353589E+000	9.4582129E+000	8.3964638E+001
5.0118722E-002	1.5194274E-001	1.4274975E-002	1.5261184E-001	-5.3671675E+000	6.5238433E+000	6.1291319E-001	6.5525718E+000	5.3671675E+000	1.9463406E+009	2.0716847E+010	2.0808075E+010	-8.4632835E+001	0.0000000E+000	0.0000000E+000	0.0000000E+000	8.4632835E+001	0.0000000E+000	0.0000000E+000	0.0000000E+000	-8.4632835E+001	0.0000000E+000	0.0000000E+000	0.0000000E+000	-5.3671675E+000	0.0000000E+000	0.0000000E+000	0.0000000E+000	5.3671675E+000	1.0643993E+001	8.4632835E+001
3.9810717E-002	1.5440495E-001	1.2459960E-002	1.5490688E-001	-4.6135793E+000	6.4345741E+000	5.1924849E-001	6.4554911E+000	4.6135793E+000	2.0758468E+009	2.5724084E+010	2.5807706E+010	-8.5386421E+001	0.0000000E+000	0.0000000E+000	0.0000000E+000	8.5386421E+001	0.0000000E+000	0.0000000E+000	0.0000000E+000	-8.5386421E+001	0.0000000E+000	0.0000000E+000	0.0000000E+000	-4.6135793E+000	0.0000000E+000	0.0000000E+000	0.0000000E+000	4.6135793E+000	1.2392091E+001	8.5386421E+001
3.1622775E-002	1.5623051E-001	1.0557665E-002	1.5658684E-001	-3.8660266E+000	6.3717008E+000	4.3058348E-001	6.3862329E+000	3.8660266E+000	2.1670932E+009	3.2068266E+010	3.2141406E+010	-8.6133972E+001	0.0000000E+000	0.0000000E+000	0.0000000E+000	8.6133972E+001	0.0000000E+000	0.0000000E+000	0.0000000E+000	-8.6133972E+001	0.0000000E+000	0.0000000E+000	0.0000000E+000	-3.8660266E+000	0.0000000E+000	0.0000000E+000	0.0000000E+000	3.8660266E+000	1.4797829E+001	8.6133972E+001
2.5118865E-002	1.5751535E-001	8.7554967E-003	1.5775850E-001	-3.1815143E+000	6.3290324E+000	3.5179952E-001	6.3388023E+000	3.1815143E+000	2.2290250E+009	4.0101208E+010	4.0163111E+010	-8.6818489E+001	0.0000000E+000	0.0000000E+000	0.0000000E+000	8.6818489E+001	0.0000000E+000	0.0000000E+000	0.0000000E+000	-8.6818489E+001	0.0000000E+000	0.0000000E+000	0.0000000E+000	-3.1815143E+000	0.0000000E+000	0.0000000E+000	0.0000000E+000	3.1815143E+000	1.7990452E+001	8.6818489E+001
1.9952623E-002	1.5838681E-001	7.1536968E-003	1.5854828E-001	-2.5860629E+000	6.3008037E+000	2.8458202E-001	6.3072271E+000	2.5860629E+000	2.2700060E+009	5.0259259E+010	5.0310496E+010	-8.7413940E+001	0.0000000E+000	0.0000000E+000	0.0000000E+000	8.7413940E+001	0.0000000E+000	0.0000000E+000	0.0000000E+000	-8.7413940E+001	0.0000000E+000	0.0000000E+000	0.0000000E+000	-2.5860629E+000	0.0000000E+000	0.0000000E+000	0.0000000E+000	2.5860629E+000	2.2140554E+001	8.7413940E+001
1.5848933E-002	1.5896316E-001	5.7869121E-003	1.5906847E-001	-2.0848811E+000	6.2824397E+000	2.2870661E-001	6.2866011E+000	2.0848811E+000	2.2966751E+009	6.3088239E+010	6.3130030E+010	-8.7915115E+001	0.0000000E+000	0.0000000E+000	0.0000000E+000	8.7915115E+001	0.0000000E+000	0.0000000E+000	0.0000000E+000	-8.7915115E+001	0.0000000E+000	0.0000000E+000	0.0000000E+000	-2.0848811E+000	0.0000000E+000	0.0000000E+000	0.0000000E+000	2.0848811E+000	2.7469427E+001	8.7915115E+001
1.2589254E-002	1.5933801E-001	4.6507102E-003	1.5940587E-001	-1.6718575E+000	6.2706242E+000	1.8302511E-001	6.2732944E+000	1.6718575E+000	2.3138296E+009	7.9274025E+010	7.9307784E+010	-8.8328140E+001	0.0000000E+000	0.0000000E+000	0.0000000E+000	8.8328140E+001	0.0000000E+000	0.0000000E+000	0.0000000E+000	-8.8328140E+001	0.0000000E+000	0.0000000E+000	0.0000000E+000	-1.6718575E+000	0.0000000E+000	0.0000000E+000	0.0000000E+000	1.6718575E+000	3.4261005E+001	8.8328140E+001
9.9999998E-003	1.5957916E-001	3.7217862E-003	1.5962255E-001	-1.3360391E+000	6.2630758E+000	1.4607064E-001	6.2647791E+000	1.3360391E+000	2.3247823E+009	9.9679953E+010	9.9707060E+010	-8.8663963E+001	0.0000000E+000	0.0000000E+000	0.0000000E+000	8.8663963E+001	0.0000000E+000	0.0000000E+000	0.0000000E+000	-8.8663963E+001	0.0000000E+000	0.0000000E+000	0.0000000E+000	-1.3360391E+000	0.0000000E+000	0.0000000E+000	0.0000000E+000	1.3360391E+000	4.2877037E+001	8.8663963E+001