EC-Lab ASCII FILE
Nb header lines : 66                          

Potentio Electrochemical Impedance Spectroscopy

Run on channel : 1 (SN 50780)
User : 
CE vs. WE compliance from -10 V to 10 V
Electrode connection : standard
Potential control : Ewe
Ewe ctrl range : min = -10.00 V, max = 10.00 V
Safety Limits :
	Do not start on E overload
Acquisition started on : 02/13/2023 18:29:28.162
Loaded Setting File :  NONE
Saved on :
	File : NoPattern_FTFF_05Fe_2MHCL_ve1cms_EIS_PCGA_01_PEIS_C01.mpr
	Directory : C:\Users\sto063\Documents\EC-Lab\Data\Baichen\Micormolding\20230213_denseNoPatternS3_FTFF\
	Host : 131.155.90.158
Device : VSP-3e (SN .003050)
Address : USB
EC-Lab for windows v11.43 (software)
Internet server v11.40 (firmware)
Command interpretor v11.40 (firmware)
Electrode material : 
Initial state : 
Electrolyte : 
Comments : 
Electrode surface area : 0.001 cm2
Characteristic mass : 0.001 g
Equivalent Weight : 0.000 g/eq.
Density : 0.000 g/cm3
Volume (V) : 0.001 cm3
Cycle Definition : Charge/Discharge alternance
Mode                Single sine         
E (V)               0.0000              
vs.                 Eoc                 
tE (h:m:s)          0:00:0.0000         
record              0                   
dI                  0.000               
unit dI             mA                  
dt (s)              0.000               
fi                  200.000             
unit fi             kHz                 
ff                  5.000               
unit ff             mHz                 
Nd                  8                   
Points              per decade          
spacing             Logarithmic         
Va (mV)             10.0                
pw                  0.10                
Na                  5                   
corr                0                   
E range min (V)     -10.000             
E range max (V)     10.000              
I Range             Auto                
Bandwidth           5                   
nc cycles           0                   
goto Ns'            0                   
nr cycles           0                   
inc. cycle          0                   

Modify on : 02/13/2023 18:29
ff                  3.000               

freq/Hz	Re(Z)/Ohm	-Im(Z)/Ohm	|Z|/Ohm	Phase(Z)/deg	time/s	<Ewe>/V	<I>/mA	Cs/uF	Cp/uF	cycle number	I Range	|Ewe|/V	|I|/A	Ns	(Q-Qo)/mA.h	Re(Y)/Ohm-1	Im(Y)/Ohm-1	|Y|/Ohm-1	Phase(Y)/deg	Re(C)/nF	Im(C)/nF	|C|/nF	Phase(C)/deg	Re(M)	Im(M)	|M|	Phase(M)/deg	Re(Permittivity)	Im(Permittivity)	|Permittivity|	Phase(Permittivity)/deg	Re(Resistivity)/Ohm.cm	Im(Resistivity)/Ohm.cm	|Resistivity|/Ohm.cm	Phase(Resistivity)/deg	Re(Conductivity)/mS/cm	Im(Conductivity)/mS/cm	|Conductivity|/mS/cm	Phase(Conductivity)/deg	Tan(Delta)	Loss Angle(Delta)/deg	dq/mA.h	
1.9999814E+005	1.9668688E-001	-1.4774559E-001	2.4599694E-001	3.6912834E+001	1.739476535905851E+000	-5.4144819E-004	-2.1637845E+000	-5.3861647E+000	-1.9428949E+000	1.000000000000000E+000	9	1.0064766E-003	4.0914193E-003	0	-8.907047752638141E-004	3.2502441E+000	-2.4414911E+000	4.0650911E+000	-3.6912834E+001	-1.9428950E+003	2.5864863E+003	3.2349270E+003	-1.2691283E+002	0.0000000E+000	0.0000000E+000	0.0000000E+000	1.2691283E+002	0.0000000E+000	0.0000000E+000	0.0000000E+000	-1.2691283E+002	0.0000000E+000	0.0000000E+000	0.0000000E+000	3.6912834E+001	0.0000000E+000	0.0000000E+000	0.0000000E+000	-3.6912834E+001	-1.3312538E+000	-3.6912834E+001	-8.907047752638141E-004
1.4939319E+005	2.0495817E-001	-1.0886128E-001	2.3207462E-001	2.7974516E+001	2.563498201750917E+000	-5.4912310E-004	-1.9551260E+000	-9.7862406E+000	-2.1533146E+000	1.000000000000000E+000	9	1.9963603E-003	8.6022345E-003	0	-1.346962269680626E-003	3.8054843E+000	-2.0212414E+000	4.3089590E+000	-2.7974516E+001	-2.1533149E+003	4.0541450E+003	4.5905181E+003	-1.1797452E+002	0.0000000E+000	0.0000000E+000	0.0000000E+000	1.1797452E+002	0.0000000E+000	0.0000000E+000	0.0000000E+000	-1.1797452E+002	0.0000000E+000	0.0000000E+000	0.0000000E+000	2.7974516E+001	0.0000000E+000	0.0000000E+000	0.0000000E+000	-2.7974516E+001	-1.8827462E+000	-2.7974516E+001	-4.562574944168122E-004
1.1159256E+005	2.0781140E-001	-7.9951413E-002	2.2266075E-001	2.1043262E+001	3.387481867539464E+000	-5.7389896E-004	-1.8565594E+000	-1.7838516E+001	-2.2999780E+000	1.000000000000000E+000	9	5.0083115E-003	2.2493014E-002	0	-1.797308011282856E-003	4.1916218E+000	-1.6126451E+000	4.4911375E+000	-2.1043262E+001	-2.2999775E+003	5.9781514E+003	6.4053252E+003	-1.1104326E+002	0.0000000E+000	0.0000000E+000	0.0000000E+000	1.1104326E+002	0.0000000E+000	0.0000000E+000	0.0000000E+000	-1.1104326E+002	0.0000000E+000	0.0000000E+000	0.0000000E+000	2.1043262E+001	0.0000000E+000	0.0000000E+000	0.0000000E+000	-2.1043262E+001	-2.5992210E+000	-2.1043262E+001	-4.503457416022299E-004
8.3358078E+004	2.0846143E-001	-5.7898138E-002	2.1635240E-001	1.5522118E+001	4.348477993189590E+000	-5.6775112E-004	-1.7535149E+000	-3.2976749E+001	-2.3616395E+000	1.000000000000000E+000	9	2.3478819E-002	1.0852119E-001	0	-2.324893452869935E-003	4.4535084E+000	-1.2369188E+000	4.6220889E+000	-1.5522118E+001	-2.3616396E+003	8.5030498E+003	8.8249189E+003	-1.0552212E+002	0.0000000E+000	0.0000000E+000	0.0000000E+000	1.0552212E+002	0.0000000E+000	0.0000000E+000	0.0000000E+000	-1.0552212E+002	0.0000000E+000	0.0000000E+000	0.0000000E+000	1.5522118E+001	0.0000000E+000	0.0000000E+000	0.0000000E+000	-1.5522118E+001	-3.6004860E+000	-1.5522118E+001	-5.275854415870791E-004
6.2258758E+004	2.0904630E-001	-4.1904885E-002	2.1320501E-001	1.1335131E+001	6.405494277569233E+000	-4.7345369E-004	-1.2416617E+000	-6.1003540E+001	-2.3566198E+000	1.000000000000000E+000	9	1.2428468E-002	5.8293510E-002	0	-2.928073699202803E-003	4.5988336E+000	-9.2187035E-001	4.6903214E+000	-1.1335131E+001	-2.3566191E+003	1.1756210E+004	1.1990085E+004	-1.0133513E+002	0.0000000E+000	0.0000000E+000	0.0000000E+000	1.0133513E+002	0.0000000E+000	0.0000000E+000	0.0000000E+000	-1.0133513E+002	0.0000000E+000	0.0000000E+000	0.0000000E+000	1.1335131E+001	0.0000000E+000	0.0000000E+000	0.0000000E+000	-1.1335131E+001	-4.9885902E+000	-1.1335131E+001	-6.031802463328673E-004
4.6782215E+004	2.0998631E-001	-3.0171461E-002	2.1214281E-001	8.1764679E+000	7.503490863047773E+000	-4.2867076E-004	-1.0381513E+000	-1.1275687E+002	-2.2807574E+000	1.000000000000000E+000	9	9.3184933E-003	4.3925568E-002	0	-3.247727192942622E-003	4.6658888E+000	-6.7040879E-001	4.7138057E+000	-8.1764679E+000	-2.2807571E+003	1.5873537E+004	1.6036553E+004	-9.8176468E+001	0.0000000E+000	0.0000000E+000	0.0000000E+000	9.8176468E+001	0.0000000E+000	0.0000000E+000	0.0000000E+000	-9.8176468E+001	0.0000000E+000	0.0000000E+000	0.0000000E+000	8.1764679E+000	0.0000000E+000	0.0000000E+000	0.0000000E+000	-8.1764679E+000	-6.9597659E+000	-8.1764679E+000	-3.196534937398195E-004
3.4989234E+004	2.1075028E-001	-2.0916551E-002	2.1178570E-001	5.6679320E+000	8.327473888843087E+000	-4.1058243E-004	-9.4674665E-001	-2.1746812E+002	-2.1212044E+000	1.000000000000000E+000	9	9.2746727E-003	4.3792725E-002	0	-3.403830892407646E-003	4.6986694E+000	-4.6633369E-001	4.7217541E+000	-5.6679320E+000	-2.1212039E+003	2.1372762E+004	2.1477766E+004	-9.5667931E+001	0.0000000E+000	0.0000000E+000	0.0000000E+000	9.5667931E+001	0.0000000E+000	0.0000000E+000	0.0000000E+000	-9.5667931E+001	0.0000000E+000	0.0000000E+000	0.0000000E+000	5.6679320E+000	0.0000000E+000	0.0000000E+000	0.0000000E+000	-5.6679320E+000	-1.0075767E+001	-5.6679320E+000	-1.561036994650235E-004
2.6165383E+004	2.1189249E-001	-1.4008710E-002	2.1235506E-001	3.7824543E+000	9.151482461282285E+000	-4.0149168E-004	-9.0071797E-001	-4.3420508E+002	-1.8895829E+000	1.000000000000000E+000	9	9.9147670E-003	4.6689574E-002	0	-3.652913138149203E-003	4.6988363E+000	-3.1065112E-001	4.7090940E+000	-3.7824543E+000	-1.8895836E+003	2.8581393E+004	2.8643787E+004	-9.3782455E+001	0.0000000E+000	0.0000000E+000	0.0000000E+000	9.3782455E+001	0.0000000E+000	0.0000000E+000	0.0000000E+000	-9.3782455E+001	0.0000000E+000	0.0000000E+000	0.0000000E+000	3.7824543E+000	0.0000000E+000	0.0000000E+000	0.0000000E+000	-3.7824543E+000	-1.5125767E+001	-3.7824543E+000	-2.490822457415572E-004
1.9568363E+004	2.1312022E-001	-8.8679111E-003	2.1330464E-001	2.3826971E+000	9.975488473806763E+000	-3.9681591E-004	-8.7617421E-001	-9.1715826E+002	-1.5852083E+000	1.000000000000000E+000	9	1.0293727E-002	4.8258334E-002	0	-3.858191190492776E-003	4.6840773E+000	-1.9490397E-001	4.6881304E+000	-2.3826971E+000	-1.5852090E+003	3.8096906E+004	3.8129871E+004	-9.2382698E+001	0.0000000E+000	0.0000000E+000	0.0000000E+000	9.2382698E+001	0.0000000E+000	0.0000000E+000	0.0000000E+000	-9.2382698E+001	0.0000000E+000	0.0000000E+000	0.0000000E+000	2.3826971E+000	0.0000000E+000	0.0000000E+000	0.0000000E+000	-2.3826971E+000	-2.4032742E+001	-2.3826971E+000	-2.052780523435728E-004
1.4632197E+004	2.1419415E-001	-5.1264144E-003	2.1425548E-001	1.3710265E+000	1.079947632623953E+001	-3.9238230E-004	-8.6295110E-001	-2.1217632E+003	-1.2146759E+000	1.000000000000000E+000	9	1.0472341E-002	4.8877824E-002	0	-4.066404825162764E-003	4.6659889E+000	-1.1167342E-001	4.6673250E+000	-1.3710265E+000	-1.2146747E+003	5.0752133E+004	5.0766668E+004	-9.1371025E+001	0.0000000E+000	0.0000000E+000	0.0000000E+000	9.1371025E+001	0.0000000E+000	0.0000000E+000	0.0000000E+000	-9.1371025E+001	0.0000000E+000	0.0000000E+000	0.0000000E+000	1.3710265E+000	0.0000000E+000	0.0000000E+000	0.0000000E+000	-1.3710265E+000	-4.1782448E+001	-1.3710265E+000	-2.082136346699881E-004
1.0939354E+004	2.1558122E-001	-2.3848442E-003	2.1559441E-001	6.3380259E-001	1.162348663204466E+001	-3.9748650E-004	-8.5968733E-001	-6.1005420E+003	-7.4647188E-001	1.000000000000000E+000	9	1.0491127E-002	4.8661407E-002	0	-4.337076049379798E-003	4.6380553E+000	-5.1307991E-002	4.6383390E+000	-6.3380259E-001	-7.4647400E+002	6.7478344E+004	6.7482469E+004	-9.0633804E+001	0.0000000E+000	0.0000000E+000	0.0000000E+000	9.0633804E+001	0.0000000E+000	0.0000000E+000	0.0000000E+000	-9.0633804E+001	0.0000000E+000	0.0000000E+000	0.0000000E+000	6.3380259E-001	0.0000000E+000	0.0000000E+000	0.0000000E+000	-6.3380259E-001	-9.0396355E+001	-6.3380259E-001	-2.706712242170339E-004
8.1792080E+003	2.1649048E-001	-3.1085368E-004	2.1649070E-001	8.2269631E-002	1.254113835564931E+001	-3.9135769E-004	-8.0894017E-001	-6.2596906E+004	-1.2905844E-001	1.000000000000000E+000	9	1.0349769E-002	4.7806993E-002	0	-4.574981861600859E-003	4.6191311E+000	-6.6325036E-003	4.6191359E+000	-8.2269631E-002	-1.2905550E+002	8.9881266E+004	8.9881359E+004	-9.0082268E+001	0.0000000E+000	0.0000000E+000	0.0000000E+000	9.0082268E+001	0.0000000E+000	0.0000000E+000	0.0000000E+000	-9.0082268E+001	0.0000000E+000	0.0000000E+000	0.0000000E+000	8.2269631E-002	0.0000000E+000	0.0000000E+000	0.0000000E+000	-8.2269631E-002	-6.9643854E+002	-8.2269631E-002	-2.379058122210613E-004
6.1213794E+003	2.1772952E-001	1.0982173E-003	2.1773230E-001	-2.8899473E-001	1.369266630372294E+001	-4.0806751E-004	-8.0353153E-001	2.3674596E+004	6.0230076E-001	1.000000000000000E+000	9	1.0284627E-002	4.7235191E-002	0	-4.789640901256767E-003	4.5927372E+000	2.3165548E-002	4.5927958E+000	2.8899473E-001	6.0229895E+002	1.1941049E+005	1.1941201E+005	-8.9711006E+001	0.0000000E+000	0.0000000E+000	0.0000000E+000	8.9711006E+001	0.0000000E+000	0.0000000E+000	0.0000000E+000	-8.9711006E+001	0.0000000E+000	0.0000000E+000	0.0000000E+000	-2.8899473E-001	0.0000000E+000	0.0000000E+000	0.0000000E+000	2.8899473E-001	1.9825723E+002	2.8899473E-001	-2.146590396559078E-004
4.5764648E+003	2.1882498E-001	2.1225719E-003	2.1883528E-001	-5.5574369E-001	1.503068964727572E+001	-3.8306799E-004	-7.3844236E-001	1.6384289E+004	1.5414084E+000	1.000000000000000E+000	9	1.0167051E-002	4.6459835E-002	0	-5.107644939518637E-003	4.5694323E+000	4.4322859E-002	4.5696473E+000	5.5574369E-001	1.5413993E+003	1.5891038E+005	1.5891784E+005	-8.9444260E+001	0.0000000E+000	0.0000000E+000	0.0000000E+000	8.9444260E+001	0.0000000E+000	0.0000000E+000	0.0000000E+000	-8.9444260E+001	0.0000000E+000	0.0000000E+000	0.0000000E+000	-5.5574369E-001	0.0000000E+000	0.0000000E+000	0.0000000E+000	5.5574369E-001	1.0309426E+002	5.5574369E-001	-3.180040382618704E-004
3.4210947E+003	2.1993946E-001	2.7360038E-003	2.1995647E-001	-7.1271157E-001	1.614670596695214E+001	-3.8310525E-004	-7.3391032E-001	1.7003500E+004	2.6308630E+000	1.000000000000000E+000	9	1.0776261E-002	4.8992697E-002	0	-5.348508706139504E-003	4.5460019E+000	5.6551382E-002	4.5463538E+000	7.1271157E-001	2.6308762E+003	2.1148748E+005	2.1150384E+005	-8.9287285E+001	0.0000000E+000	0.0000000E+000	0.0000000E+000	8.9287285E+001	0.0000000E+000	0.0000000E+000	0.0000000E+000	-8.9287285E+001	0.0000000E+000	0.0000000E+000	0.0000000E+000	-7.1271157E-001	0.0000000E+000	0.0000000E+000	0.0000000E+000	7.1271157E-001	8.0387115E+001	7.1271157E-001	-2.408637666208666E-004
2.5708225E+003	2.2090174E-001	3.0108949E-003	2.2092226E-001	-7.8089422E-001	1.748368056378968E+001	-3.9204696E-004	-7.7492213E-001	2.0561389E+004	3.8191321E+000	1.000000000000000E+000	9	1.0212833E-002	4.6228174E-002	0	-5.659053682073951E-003	4.5260587E+000	6.1690267E-002	4.5264792E+000	7.8089422E-001	3.8191187E+003	2.8020006E+005	2.8022609E+005	-8.9219109E+001	0.0000000E+000	0.0000000E+000	0.0000000E+000	8.9219109E+001	0.0000000E+000	0.0000000E+000	0.0000000E+000	-8.9219109E+001	0.0000000E+000	0.0000000E+000	0.0000000E+000	-7.8089422E-001	0.0000000E+000	0.0000000E+000	0.0000000E+000	7.8089422E-001	7.3367470E+001	7.8089422E-001	-3.105449759344472E-004
1.9131631E+003	2.2184435E-001	3.1907628E-003	2.2186729E-001	-8.2402211E-001	1.859992264345055E+001	-3.8388764E-004	-7.4735719E-001	2.6071955E+004	5.3923254E+000	1.000000000000000E+000	9	1.0410918E-002	4.6924077E-002	0	-5.895073425422526E-003	4.5067325E+000	6.4819843E-002	4.5071988E+000	8.2402211E-001	5.3923145E+003	3.7491250E+005	3.7495128E+005	-8.9175980E+001	0.0000000E+000	0.0000000E+000	0.0000000E+000	8.9175980E+001	0.0000000E+000	0.0000000E+000	0.0000000E+000	-8.9175980E+001	0.0000000E+000	0.0000000E+000	0.0000000E+000	-8.2402211E-001	0.0000000E+000	0.0000000E+000	0.0000000E+000	8.2402211E-001	6.9527054E+001	8.2402211E-001	-2.360197433485750E-004
1.4322919E+003	2.2256294E-001	3.1876545E-003	2.2258577E-001	-8.2056189E-001	1.971542008305551E+001	-3.8753884E-004	-7.5159079E-001	3.4859195E+004	7.1493254E+000	1.000000000000000E+000	9	1.0515417E-002	4.7242090E-002	0	-6.118510298403187E-003	4.4921894E+000	6.4339317E-002	4.4926500E+000	8.2056189E-001	7.1493462E+003	4.9916794E+005	4.9921913E+005	-8.9179436E+001	0.0000000E+000	0.0000000E+000	0.0000000E+000	8.9179436E+001	0.0000000E+000	0.0000000E+000	0.0000000E+000	-8.9179436E+001	0.0000000E+000	0.0000000E+000	0.0000000E+000	-8.2056189E-001	0.0000000E+000	0.0000000E+000	0.0000000E+000	8.2056189E-001	6.9820282E+001	8.2056189E-001	-2.234368729806613E-004
1.0703425E+003	2.2321750E-001	3.1600653E-003	2.2323987E-001	-8.1107581E-001	2.083068880275823E+001	-3.8744570E-004	-7.6061743E-001	4.7054516E+004	9.4286575E+000	1.000000000000000E+000	9	1.0570651E-002	4.7351088E-002	0	-6.312365907314130E-003	4.4790378E+000	6.3409239E-002	4.4794865E+000	8.1107581E-001	9.4286289E+003	6.6601200E+005	6.6607875E+005	-8.9188927E+001	0.0000000E+000	0.0000000E+000	0.0000000E+000	8.9188927E+001	0.0000000E+000	0.0000000E+000	0.0000000E+000	-8.9188927E+001	0.0000000E+000	0.0000000E+000	0.0000000E+000	-8.1107581E-001	0.0000000E+000	0.0000000E+000	0.0000000E+000	8.1107581E-001	7.0636993E+001	8.1107581E-001	-1.938556089109431E-004
8.0025592E+002	2.2395405E-001	3.1475555E-003	2.2397617E-001	-8.0520880E-001	2.194671336243482E+001	-4.0484476E-004	-7.5198239E-001	6.3185559E+004	1.2478461E+001	1.000000000000000E+000	9	1.0607075E-002	4.7358051E-002	0	-6.500383446042530E-003	4.4643197E+000	6.2743649E-002	4.4647608E+000	8.0520880E-001	1.2478422E+004	8.8786419E+005	8.8795188E+005	-8.9194794E+001	0.0000000E+000	0.0000000E+000	0.0000000E+000	8.9194794E+001	0.0000000E+000	0.0000000E+000	0.0000000E+000	-8.9194794E+001	0.0000000E+000	0.0000000E+000	0.0000000E+000	-8.0520880E-001	0.0000000E+000	0.0000000E+000	0.0000000E+000	8.0520880E-001	7.1151741E+001	8.0520880E-001	-1.880175387283991E-004
5.9865900E+002	2.2453226E-001	2.9976796E-003	2.2455227E-001	-7.6489758E-001	2.306619013557793E+001	-3.8420435E-004	-7.3073983E-001	8.8686070E+004	1.5804870E+001	1.000000000000000E+000	9	1.0623788E-002	4.7310982E-002	0	-6.719030038795123E-003	4.4529095E+000	5.9449788E-002	4.4533062E+000	7.6489758E-001	1.5804923E+004	1.1838166E+006	1.1839221E+006	-8.9235100E+001	0.0000000E+000	0.0000000E+000	0.0000000E+000	8.9235100E+001	0.0000000E+000	0.0000000E+000	0.0000000E+000	-8.9235100E+001	0.0000000E+000	0.0000000E+000	0.0000000E+000	-7.6489758E-001	0.0000000E+000	0.0000000E+000	0.0000000E+000	7.6489758E-001	7.4902023E+001	7.6489758E-001	-2.186465927525938E-004
4.4785031E+002	2.2498648E-001	2.9708662E-003	2.2500609E-001	-7.5652635E-001	2.418671546882979E+001	-3.8720353E-004	-7.4584657E-001	1.1962010E+005	2.0853636E+001	1.000000000000000E+000	9	1.0628875E-002	4.7238167E-002	0	-6.977697902918690E-003	4.4439368E+000	5.8680598E-002	4.4443240E+000	7.5652635E-001	2.0853549E+004	1.5792655E+006	1.5794031E+006	-8.9243477E+001	0.0000000E+000	0.0000000E+000	0.0000000E+000	8.9243477E+001	0.0000000E+000	0.0000000E+000	0.0000000E+000	-8.9243477E+001	0.0000000E+000	0.0000000E+000	0.0000000E+000	-7.5652635E-001	0.0000000E+000	0.0000000E+000	0.0000000E+000	7.5652635E-001	7.5730934E+001	7.5652635E-001	-2.586678641235667E-004
3.3467871E+002	2.2554530E-001	3.0435571E-003	2.2556584E-001	-7.7311474E-001	2.530295754849794E+001	-3.9404022E-004	-7.4470884E-001	1.5624659E+005	2.8446369E+001	1.000000000000000E+000	9	1.0637101E-002	4.7157411E-002	0	-7.211971454228999E-003	4.4328918E+000	5.9818402E-002	4.4332952E+000	7.7311474E-001	2.8446455E+004	2.1080415E+006	2.1082335E+006	-8.9226883E+001	0.0000000E+000	0.0000000E+000	0.0000000E+000	8.9226883E+001	0.0000000E+000	0.0000000E+000	0.0000000E+000	-8.9226883E+001	0.0000000E+000	0.0000000E+000	0.0000000E+000	-7.7311474E-001	0.0000000E+000	0.0000000E+000	0.0000000E+000	7.7311474E-001	7.4105827E+001	7.7311474E-001	-2.342735513103092E-004
2.5040062E+002	2.2597837E-001	3.1284778E-003	2.2600003E-001	-7.9316050E-001	2.641844941480667E+001	-3.8984878E-004	-7.3210132E-001	2.0316630E+005	3.8931473E+001	1.000000000000000E+000	9	1.0638045E-002	4.7070991E-002	0	-7.462296833995937E-003	4.4243546E+000	6.1251413E-002	4.4247785E+000	7.9316050E-001	3.8931426E+004	2.8121253E+006	2.8123948E+006	-8.9206841E+001	0.0000000E+000	0.0000000E+000	0.0000000E+000	8.9206841E+001	0.0000000E+000	0.0000000E+000	0.0000000E+000	-8.9206841E+001	0.0000000E+000	0.0000000E+000	0.0000000E+000	-7.9316050E-001	0.0000000E+000	0.0000000E+000	0.0000000E+000	7.9316050E-001	7.2232689E+001	7.9316050E-001	-2.503253797669375E-004
1.8721666E+002	2.2651604E-001	3.0916096E-003	2.2653714E-001	-7.8195429E-001	2.752239226721576E+001	-3.9623838E-004	-7.4834567E-001	2.7497359E+005	5.1213146E+001	1.000000000000000E+000	9	1.0641250E-002	4.6973534E-002	0	-7.682792660876488E-003	4.4138761E+000	6.0242895E-002	4.4142871E+000	7.8195429E-001	5.1212992E+004	3.7522845E+006	3.7526340E+006	-8.9218048E+001	0.0000000E+000	0.0000000E+000	0.0000000E+000	8.9218048E+001	0.0000000E+000	0.0000000E+000	0.0000000E+000	-8.9218048E+001	0.0000000E+000	0.0000000E+000	0.0000000E+000	-7.8195429E-001	0.0000000E+000	0.0000000E+000	0.0000000E+000	7.8195429E-001	7.3267998E+001	7.8195429E-001	-2.204958268805512E-004
1.4004485E+002	2.2694366E-001	3.4383917E-003	2.2696970E-001	-8.6801398E-001	2.863769498690817E+001	-4.0437904E-004	-7.3846108E-001	3.3051994E+005	7.5852966E+001	1.000000000000000E+000	9	1.0638371E-002	4.6871327E-002	0	-7.943582371831147E-003	4.4053688E+000	6.6745125E-002	4.4058743E+000	8.6801398E-001	7.5852758E+004	5.0065125E+006	5.0070870E+006	-8.9131989E+001	0.0000000E+000	0.0000000E+000	0.0000000E+000	8.9131989E+001	0.0000000E+000	0.0000000E+000	0.0000000E+000	-8.9131989E+001	0.0000000E+000	0.0000000E+000	0.0000000E+000	-8.6801398E-001	0.0000000E+000	0.0000000E+000	0.0000000E+000	8.6801398E-001	6.6002853E+001	8.6801398E-001	-2.607897109546588E-004
1.0476534E+002	2.2746488E-001	3.6954929E-003	2.2749490E-001	-9.3077016E-001	2.975719728003605E+001	-3.9208421E-004	-7.2518212E-001	4.1108359E+005	1.0847548E+002	1.000000000000000E+000	9	1.0638629E-002	4.6764255E-002	0	-8.196836525714232E-003	4.3951230E+000	7.1405068E-002	4.3957028E+000	9.3077016E-001	1.0847555E+005	6.6768795E+006	6.6777605E+006	-8.9069229E+001	0.0000000E+000	0.0000000E+000	0.0000000E+000	8.9069229E+001	0.0000000E+000	0.0000000E+000	0.0000000E+000	-8.9069229E+001	0.0000000E+000	0.0000000E+000	0.0000000E+000	-9.3077016E-001	0.0000000E+000	0.0000000E+000	0.0000000E+000	9.3077016E-001	6.1551975E+001	9.3077016E-001	-2.532541538830847E-004
7.8320786E+001	2.2810516E-001	4.0918672E-003	2.2814186E-001	-1.0276909E+000	3.089405624073697E+001	-3.8675647E-004	-7.1682686E-001	4.9661700E+005	1.5975508E+002	1.000000000000000E+000	9	1.0643146E-002	4.6651438E-002	0	-8.429255985658616E-003	4.3825326E+000	7.8616120E-002	4.3832378E+000	1.0276909E+000	1.5975569E+005	8.9057040E+006	8.9071370E+006	-8.8972305E+001	0.0000000E+000	0.0000000E+000	0.0000000E+000	8.8972305E+001	0.0000000E+000	0.0000000E+000	0.0000000E+000	-8.8972305E+001	0.0000000E+000	0.0000000E+000	0.0000000E+000	-1.0276909E+000	0.0000000E+000	0.0000000E+000	0.0000000E+000	1.0276909E+000	5.5745983E+001	1.0276909E+000	-2.324194599443840E-004
5.8593750E+001	2.2865421E-001	4.4601373E-003	2.2869770E-001	-1.1174719E+000	3.203457509484724E+001	-3.8355234E-004	-7.0084369E-001	6.0900463E+005	2.3162929E+002	1.000000000000000E+000	9	1.0637503E-002	4.6513379E-002	0	-8.638347828397733E-003	4.3717527E+000	8.5275576E-002	4.3725843E+000	1.1174719E+000	2.3162886E+005	1.1874749E+007	1.1877008E+007	-8.8882530E+001	0.0000000E+000	0.0000000E+000	0.0000000E+000	8.8882530E+001	0.0000000E+000	0.0000000E+000	0.0000000E+000	-8.8882530E+001	0.0000000E+000	0.0000000E+000	0.0000000E+000	-1.1174719E+000	0.0000000E+000	0.0000000E+000	0.0000000E+000	1.1174719E+000	5.1266182E+001	1.1174719E+000	-2.090918427391179E-004
4.3781132E+001	2.2935531E-001	4.9200463E-003	2.2940807E-001	-1.2288997E+000	3.317834181585931E+001	-3.8217384E-004	-7.0774418E-001	7.3886306E+005	3.3984818E+002	1.000000000000000E+000	9	1.0639270E-002	4.6377052E-002	0	-8.874812990683649E-003	4.3580418E+000	9.3487129E-002	4.3590446E+000	1.2288997E+000	3.3984744E+005	1.5842529E+007	1.5846174E+007	-8.8771103E+001	0.0000000E+000	0.0000000E+000	0.0000000E+000	8.8771103E+001	0.0000000E+000	0.0000000E+000	0.0000000E+000	-8.8771103E+001	0.0000000E+000	0.0000000E+000	0.0000000E+000	-1.2288997E+000	0.0000000E+000	0.0000000E+000	0.0000000E+000	1.2288997E+000	4.6616493E+001	1.2288997E+000	-2.364651622859155E-004
3.2747005E+001	2.3004813E-001	5.4019196E-003	2.3011155E-001	-1.3451546E+000	3.436350677881273E+001	-3.8303074E-004	-7.0572996E-001	8.9970556E+005	4.9581516E+002	1.000000000000000E+000	9	1.0634669E-002	4.6215277E-002	0	-9.062182206738741E-003	4.3445206E+000	1.0201669E-001	4.3457184E+000	1.3451546E+000	4.9581484E+005	2.1114968E+007	2.1120788E+007	-8.8654846E+001	0.0000000E+000	0.0000000E+000	0.0000000E+000	8.8654846E+001	0.0000000E+000	0.0000000E+000	0.0000000E+000	-8.8654846E+001	0.0000000E+000	0.0000000E+000	0.0000000E+000	-1.3451546E+000	0.0000000E+000	0.0000000E+000	0.0000000E+000	1.3451546E+000	4.2586369E+001	1.3451546E+000	-1.873692160550920E-004
2.4505960E+001	2.3103765E-001	6.2500047E-003	2.3112217E-001	-1.5495812E+000	3.549879205945763E+001	-3.8835852E-004	-7.3320168E-001	1.0391256E+006	7.5988092E+002	1.000000000000000E+000	9	1.0641608E-002	4.6043217E-002	0	-9.191309646592786E-003	4.3251338E+000	1.1700304E-001	4.3267159E+000	1.5495812E+000	7.5988200E+005	2.8089754E+007	2.8100030E+007	-8.8450417E+001	0.0000000E+000	0.0000000E+000	0.0000000E+000	8.8450417E+001	0.0000000E+000	0.0000000E+000	0.0000000E+000	-8.8450417E+001	0.0000000E+000	0.0000000E+000	0.0000000E+000	-1.5495812E+000	0.0000000E+000	0.0000000E+000	0.0000000E+000	1.5495812E+000	3.6965996E+001	1.5495812E+000	-1.291274398540453E-004
1.8339199E+001	2.3193125E-001	7.0509370E-003	2.3203841E-001	-1.7413114E+000	3.670588750342722E+001	-3.8507988E-004	-7.4478340E-001	1.2308155E+006	1.1364933E+003	1.000000000000000E+000	9	1.0637513E-002	4.5843761E-002	0	-9.492016295998875E-003	4.3076410E+000	1.3095650E-001	4.3096313E+000	1.7413114E+000	1.1364924E+006	3.7383444E+007	3.7400716E+007	-8.8258690E+001	0.0000000E+000	0.0000000E+000	0.0000000E+000	8.8258690E+001	0.0000000E+000	0.0000000E+000	0.0000000E+000	-8.8258690E+001	0.0000000E+000	0.0000000E+000	0.0000000E+000	-1.7413114E+000	0.0000000E+000	0.0000000E+000	0.0000000E+000	1.7413114E+000	3.2893677E+001	1.7413114E+000	-3.007066494060892E-004
1.3690127E+001	2.3302674E-001	8.0072135E-003	2.3316428E-001	-1.9680105E+000	3.791692646761658E+001	-3.9214941E-004	-7.5325996E-001	1.4518816E+006	1.7122611E+003	1.000000000000000E+000	9	1.0636963E-002	4.5620035E-002	0	-9.614595793356705E-003	4.2862921E+000	1.4728461E-001	4.2888217E+000	1.9680105E+000	1.7122606E+006	4.9830400E+007	4.9859808E+007	-8.8031990E+001	0.0000000E+000	0.0000000E+000	0.0000000E+000	8.8031990E+001	0.0000000E+000	0.0000000E+000	0.0000000E+000	-8.8031990E+001	0.0000000E+000	0.0000000E+000	0.0000000E+000	-1.9680105E+000	0.0000000E+000	0.0000000E+000	0.0000000E+000	1.9680105E+000	2.9102102E+001	1.9680105E+000	-1.225794973578297E-004
1.0239186E+001	2.3434877E-001	9.1966530E-003	2.3452915E-001	-2.2473304E+000	3.901007814620971E+001	-3.9417061E-004	-7.2801691E-001	1.6901486E+006	2.5989077E+003	1.000000000000000E+000	9	1.0638901E-002	4.5362808E-002	0	-9.789502837210997E-003	4.2605824E+000	1.6719992E-001	4.2638621E+000	2.2473304E+000	2.5989063E+006	6.6225260E+007	6.6276236E+007	-8.7752670E+001	0.0000000E+000	0.0000000E+000	0.0000000E+000	8.7752670E+001	0.0000000E+000	0.0000000E+000	0.0000000E+000	-8.7752670E+001	0.0000000E+000	0.0000000E+000	0.0000000E+000	-2.2473304E+000	0.0000000E+000	0.0000000E+000	0.0000000E+000	2.2473304E+000	2.5481964E+001	2.2473304E+000	-1.749070438542919E-004
7.6593132E+000	2.3582354E-001	1.0488719E-002	2.3605669E-001	-2.5466647E+000	4.043288949379348E+001	-3.8961592E-004	-7.0584184E-001	1.9811068E+006	3.9112910E+003	1.000000000000000E+000	9	1.0639761E-002	4.5072906E-002	0	-1.002606018164361E-002	4.2320867E+000	1.8823043E-001	4.2362704E+000	2.5466647E+000	3.9112860E+006	8.7939680E+007	8.8026616E+007	-8.7453339E+001	0.0000000E+000	0.0000000E+000	0.0000000E+000	8.7453339E+001	0.0000000E+000	0.0000000E+000	0.0000000E+000	-8.7453339E+001	0.0000000E+000	0.0000000E+000	0.0000000E+000	-2.5466647E+000	0.0000000E+000	0.0000000E+000	0.0000000E+000	2.5466647E+000	2.2483541E+001	2.5466647E+000	-2.365573444326093E-004
5.7276392E+000	2.3748255E-001	1.2076579E-002	2.3778941E-001	-2.9111254E+000	4.142333580748527E+001	-4.0266523E-004	-7.3346281E-001	2.3009148E+006	5.9347632E+003	1.000000000000000E+000	9	1.0638604E-002	4.4739604E-002	0	-1.073023746569268E-002	4.1999750E+000	2.1357918E-001	4.2054019E+000	2.9111254E+000	5.9347630E+006	1.1670546E+008	1.1685626E+008	-8.7088875E+001	0.0000000E+000	0.0000000E+000	0.0000000E+000	8.7088875E+001	0.0000000E+000	0.0000000E+000	0.0000000E+000	-8.7088875E+001	0.0000000E+000	0.0000000E+000	0.0000000E+000	-2.9111254E+000	0.0000000E+000	0.0000000E+000	0.0000000E+000	2.9111254E+000	1.9664721E+001	2.9111254E+000	-7.041772840490779E-004
4.2831688E+000	2.3933828E-001	1.3899407E-002	2.3974153E-001	-3.3236802E+000	4.270827277519857E+001	-3.7937023E-004	-7.1867323E-001	2.6733675E+006	8.9859639E+003	1.000000000000000E+000	9	1.0637812E-002	4.4372004E-002	0	-1.052827818719215E-002	4.1641426E+000	2.4182974E-001	4.1711588E+000	3.3236802E+000	8.9859550E+006	1.5473214E+008	1.5499285E+008	-8.6676323E+001	0.0000000E+000	0.0000000E+000	0.0000000E+000	8.6676323E+001	0.0000000E+000	0.0000000E+000	0.0000000E+000	-8.6676323E+001	0.0000000E+000	0.0000000E+000	0.0000000E+000	-3.3236802E+000	0.0000000E+000	0.0000000E+000	0.0000000E+000	3.3236802E+000	1.7219315E+001	3.3236802E+000	2.019592785005350E-004
3.2018445E+000	2.4145289E-001	1.6003290E-002	2.4198265E-001	-3.7919691E+000	4.438917162836879E+001	-3.8820948E-004	-6.9080049E-001	3.1060655E+006	1.3585033E+004	1.000000000000000E+000	9	1.0634883E-002	4.3948948E-002	0	-1.167710964078880E-002	4.1234808E+000	2.7330077E-001	4.1325278E+000	3.7919691E+000	1.3585036E+007	2.0496696E+008	2.0541667E+008	-8.6208031E+001	0.0000000E+000	0.0000000E+000	0.0000000E+000	8.6208031E+001	0.0000000E+000	0.0000000E+000	0.0000000E+000	-8.6208031E+001	0.0000000E+000	0.0000000E+000	0.0000000E+000	-3.7919691E+000	0.0000000E+000	0.0000000E+000	0.0000000E+000	3.7919691E+000	1.5087703E+001	3.7919691E+000	-1.148831453596654E-003
2.3979437E+000	2.4411538E-001	1.8518323E-002	2.4481677E-001	-4.3380857E+000	4.659893242665567E+001	-3.8493055E-004	-7.1897662E-001	3.5840950E+006	2.0506922E+004	1.000000000000000E+000	9	1.0637933E-002	4.3452635E-002	0	-1.092878269908184E-002	4.0729852E+000	3.0897215E-001	4.0846877E+000	4.3380857E+000	2.0506936E+007	2.7032982E+008	2.7110653E+008	-8.5661911E+001	0.0000000E+000	0.0000000E+000	0.0000000E+000	8.5661911E+001	0.0000000E+000	0.0000000E+000	0.0000000E+000	-8.5661911E+001	0.0000000E+000	0.0000000E+000	0.0000000E+000	-4.3380857E+000	0.0000000E+000	0.0000000E+000	0.0000000E+000	4.3380857E+000	1.3182370E+001	4.3380857E+000	7.483269417069647E-004
1.7918581E+000	2.4735741E-001	2.1177007E-002	2.4826227E-001	-4.8933306E+000	4.952605363234761E+001	-3.7154037E-004	-7.0314014E-001	4.1942270E+006	3.0518252E+004	1.000000000000000E+000	9	1.0638640E-002	4.2852424E-002	0	-1.131798758744904E-002	4.0133171E+000	3.4359208E-001	4.0279984E+000	4.8933306E+000	3.0518270E+007	3.5646755E+008	3.5777155E+008	-8.5106667E+001	0.0000000E+000	0.0000000E+000	0.0000000E+000	8.5106667E+001	0.0000000E+000	0.0000000E+000	0.0000000E+000	-8.5106667E+001	0.0000000E+000	0.0000000E+000	0.0000000E+000	-4.8933306E+000	0.0000000E+000	0.0000000E+000	0.0000000E+000	4.8933306E+000	1.1680470E+001	4.8933306E+000	-3.892048883671981E-004
1.3395916E+000	2.5067860E-001	2.4499569E-002	2.5187296E-001	-5.5819607E+000	5.341265645698877E+001	-3.7663776E-004	-6.1347258E-001	4.8494140E+006	4.5882078E+004	1.000000000000000E+000	9	1.0639599E-002	4.2241924E-002	0	-1.354318267892529E-002	3.9514289E+000	3.8618499E-001	3.9702556E+000	5.5819607E+000	4.5882096E+007	4.6946355E+008	4.7170032E+008	-8.4418037E+001	0.0000000E+000	0.0000000E+000	0.0000000E+000	8.4418037E+001	0.0000000E+000	0.0000000E+000	0.0000000E+000	-8.4418037E+001	0.0000000E+000	0.0000000E+000	0.0000000E+000	-5.5819607E+000	0.0000000E+000	0.0000000E+000	0.0000000E+000	5.5819607E+000	1.0231959E+001	5.5819607E+000	-2.225195091476249E-003
1.0023737E+000	2.5475875E-001	2.7963169E-002	2.5628883E-001	-6.2638998E+000	5.962390757864341E+001	-3.7241631E-004	-7.5132918E-001	5.6781135E+006	6.7595461E+004	1.000000000000000E+000	10	1.0637499E-002	4.1505903E-002	0	-1.566760025478092E-002	3.8785534E+000	4.2572293E-001	3.9018478E+000	6.2638998E+000	6.7595464E+007	6.1582918E+008	6.1952781E+008	-8.3736099E+001	0.0000000E+000	0.0000000E+000	0.0000000E+000	8.3736099E+001	0.0000000E+000	0.0000000E+000	0.0000000E+000	-8.3736099E+001	0.0000000E+000	0.0000000E+000	0.0000000E+000	-6.2638998E+000	0.0000000E+000	0.0000000E+000	0.0000000E+000	6.2638998E+000	9.1105108E+000	6.2638998E+000	-2.124417575855636E-003
7.5004834E-001	2.5957316E-001	3.2016490E-002	2.6154020E-001	-7.0315099E+000	6.650173553201603E+001	-3.7894925E-004	-9.4702464E-001	6.6276135E+006	9.9317930E+004	1.000000000000000E+000	10	1.0638819E-002	4.0677566E-002	0	-1.569665356989536E-002	3.7947474E+000	4.6805492E-001	3.8235040E+000	7.0315099E+000	9.9317928E+007	8.0521850E+008	8.1132045E+008	-8.2968491E+001	0.0000000E+000	0.0000000E+000	0.0000000E+000	8.2968491E+001	0.0000000E+000	0.0000000E+000	0.0000000E+000	-8.2968491E+001	0.0000000E+000	0.0000000E+000	0.0000000E+000	-7.0315099E+000	0.0000000E+000	0.0000000E+000	0.0000000E+000	7.0315099E+000	8.1074839E+000	7.0315099E+000	-2.905331511443912E-005
5.5995554E-001	2.6493528E-001	3.6285214E-002	2.6740852E-001	-7.7986407E+000	7.568946031501400E+001	-3.7314132E-004	-6.9734704E-001	7.8331580E+006	1.4422675E+005	1.000000000000000E+000	10	1.0636132E-002	3.9774846E-002	0	-1.511574729674165E-002	3.7050092E+000	5.0743359E-001	3.7395966E+000	7.7986407E+000	1.4422669E+008	1.0530668E+009	1.0628975E+009	-8.2201363E+001	0.0000000E+000	0.0000000E+000	0.0000000E+000	8.2201363E+001	0.0000000E+000	0.0000000E+000	0.0000000E+000	-8.2201363E+001	0.0000000E+000	0.0000000E+000	0.0000000E+000	-7.7986407E+000	0.0000000E+000	0.0000000E+000	0.0000000E+000	7.7986407E+000	7.3014669E+000	7.7986407E+000	5.809062731537157E-004
4.1876611E-001	2.7169630E-001	4.0969227E-002	2.7476782E-001	-8.5750570E+000	8.794813983063796E+001	-3.8045211E-004	-7.1850210E-001	9.2766430E+006	2.0624083E+005	1.000000000000000E+000	10	1.0635950E-002	3.8708862E-002	0	-1.601080939041818E-002	3.5987527E+000	5.4265779E-001	3.6394365E+000	8.5750570E+000	2.0624083E+008	1.3677307E+009	1.3831928E+009	-8.1424942E+001	0.0000000E+000	0.0000000E+000	0.0000000E+000	8.1424942E+001	0.0000000E+000	0.0000000E+000	0.0000000E+000	-8.1424942E+001	0.0000000E+000	0.0000000E+000	0.0000000E+000	-8.5750570E+000	0.0000000E+000	0.0000000E+000	0.0000000E+000	8.5750570E+000	6.6317167E+000	8.5750570E+000	-8.950620936765356E-004
3.1325185E-001	2.7770120E-001	4.6485797E-002	2.8156507E-001	-9.5029211E+000	1.043119213545579E+002	-3.7353116E-004	-7.0327801E-001	1.0929649E+007	2.9791284E+005	1.000000000000000E+000	10	1.0640094E-002	3.7789114E-002	0	-2.064478055654177E-002	3.5028393E+000	5.8635783E-001	3.5515769E+000	9.5029211E+000	2.9791283E+008	1.7796995E+009	1.8044617E+009	-8.0497078E+001	0.0000000E+000	0.0000000E+000	0.0000000E+000	8.0497078E+001	0.0000000E+000	0.0000000E+000	0.0000000E+000	-8.0497078E+001	0.0000000E+000	0.0000000E+000	0.0000000E+000	-9.5029211E+000	0.0000000E+000	0.0000000E+000	0.0000000E+000	9.5029211E+000	5.9738936E+000	9.5029211E+000	-4.633971166123584E-003
2.3456734E-001	2.8415510E-001	5.2253835E-002	2.8891969E-001	-1.0419820E+001	1.261423404180969E+002	-3.7329536E-004	-7.2688019E-001	1.2984774E+007	4.2473347E+005	1.000000000000000E+000	10	1.0639104E-002	3.6823742E-002	0	-2.952521438576674E-002	3.4040911E+000	6.2598497E-001	3.4611695E+000	1.0419820E+001	4.2473357E+008	2.3096904E+009	2.3484183E+009	-7.9580177E+001	0.0000000E+000	0.0000000E+000	0.0000000E+000	7.9580177E+001	0.0000000E+000	0.0000000E+000	0.0000000E+000	-7.9580177E+001	0.0000000E+000	0.0000000E+000	0.0000000E+000	-1.0419820E+001	0.0000000E+000	0.0000000E+000	0.0000000E+000	1.0419820E+001	5.4379759E+000	1.0419820E+001	-8.880433829224977E-003
1.7551447E-001	2.9111403E-001	5.9495077E-002	2.9713136E-001	-1.1550501E+001	1.552951075627643E+002	-3.7300654E-004	-6.8774533E-001	1.5241445E+007	6.1107038E+005	1.000000000000000E+000	10	1.0637243E-002	3.5799801E-002	0	-4.105833639898172E-002	3.2973583E+000	6.7388231E-001	3.3655148E+000	1.1550501E+001	6.1107034E+008	2.9900150E+009	3.0518185E+009	-7.8449501E+001	0.0000000E+000	0.0000000E+000	0.0000000E+000	7.8449501E+001	0.0000000E+000	0.0000000E+000	0.0000000E+000	-7.8449501E+001	0.0000000E+000	0.0000000E+000	0.0000000E+000	-1.1550501E+001	0.0000000E+000	0.0000000E+000	0.0000000E+000	1.1550501E+001	4.8930779E+000	1.1550501E+001	-1.153312201321497E-002
1.3099428E-001	2.9876235E-001	6.9939338E-002	3.0683947E-001	-1.3175505E+001	1.943325880836055E+002	-3.7682502E-004	-6.6208154E-001	1.7371860E+007	9.0254094E+005	1.000000000000000E+000	10	1.0638677E-002	3.4671798E-002	0	-5.157841132436527E-002	3.1732438E+000	7.4284649E-001	3.2590332E+000	1.3175505E+001	9.0254106E+008	3.8554161E+009	3.9596483E+009	-7.6824493E+001	0.0000000E+000	0.0000000E+000	0.0000000E+000	7.6824493E+001	0.0000000E+000	0.0000000E+000	0.0000000E+000	-7.6824493E+001	0.0000000E+000	0.0000000E+000	0.0000000E+000	-1.3175505E+001	0.0000000E+000	0.0000000E+000	0.0000000E+000	1.3175505E+001	4.2717357E+000	1.3175505E+001	-1.052007492538355E-002
9.8009102E-002	3.0705073E-001	8.4005132E-002	3.1833476E-001	-1.5300964E+001	2.464871861874999E+002	-3.7538400E-004	-6.3515371E-001	1.9330716E+007	1.3461438E+006	1.000000000000000E+000	10	1.0639825E-002	3.3423383E-002	0	-5.728318040703548E-002	3.0299957E+000	8.2896787E-001	3.1413472E+000	1.5300964E+001	1.3461436E+009	4.9203471E+009	5.1011681E+009	-7.4699036E+001	0.0000000E+000	0.0000000E+000	0.0000000E+000	7.4699036E+001	0.0000000E+000	0.0000000E+000	0.0000000E+000	-7.4699036E+001	0.0000000E+000	0.0000000E+000	0.0000000E+000	-1.5300964E+001	0.0000000E+000	0.0000000E+000	0.0000000E+000	1.5300964E+001	3.6551425E+000	1.5300964E+001	-5.704769082670209E-003
7.3290735E-002	3.1771433E-001	1.0150150E-001	3.3353403E-001	-1.7717335E+001	3.162105745125155E+002	-3.7303483E-004	-6.2190789E-001	2.1394324E+007	1.9813591E+006	1.000000000000000E+000	10	1.0638604E-002	3.1896606E-002	0	-5.734625885794436E-002	2.8559887E+000	9.1241443E-001	2.9981947E+000	1.7717335E+001	1.9813587E+009	6.2019400E+009	6.5107482E+009	-7.2282669E+001	0.0000000E+000	0.0000000E+000	0.0000000E+000	7.2282669E+001	0.0000000E+000	0.0000000E+000	0.0000000E+000	-7.2282669E+001	0.0000000E+000	0.0000000E+000	0.0000000E+000	-1.7717335E+001	0.0000000E+000	0.0000000E+000	0.0000000E+000	1.7717335E+001	3.1301441E+000	1.7717335E+001	-6.307845090888081E-005
5.4772288E-002	3.3365333E-001	1.2352013E-001	3.5578331E-001	-2.0314804E+001	4.094862454762042E+002	-3.7450608E-004	-5.9377658E-001	2.3524560E+007	2.8354750E+006	1.000000000000000E+000	10	1.0635035E-002	2.9891888E-002	0	-5.702486501805650E-002	2.6358719E+000	9.7581291E-001	2.8106995E+000	2.0314804E+001	2.8354752E+009	7.6592031E+009	8.1672095E+009	-6.9685196E+001	0.0000000E+000	0.0000000E+000	0.0000000E+000	6.9685196E+001	0.0000000E+000	0.0000000E+000	0.0000000E+000	-6.9685196E+001	0.0000000E+000	0.0000000E+000	0.0000000E+000	-2.0314804E+001	0.0000000E+000	0.0000000E+000	0.0000000E+000	2.0314804E+001	2.7012062E+000	2.0314804E+001	3.213938398878569E-004
4.0958036E-002	3.5664949E-001	1.5066187E-001	3.8716644E-001	-2.2900986E+001	5.342007511598640E+002	-3.7476604E-004	-5.7473874E-001	2.5791562E+007	3.9056108E+006	1.000000000000000E+000	10	1.0635023E-002	2.7468866E-002	0	-6.723765113114152E-002	2.3792834E+000	1.0050969E+000	2.5828686E+000	2.2900986E+001	3.9056110E+009	9.2454318E+009	1.0036524E+010	-6.7099014E+001	0.0000000E+000	0.0000000E+000	0.0000000E+000	6.7099014E+001	0.0000000E+000	0.0000000E+000	0.0000000E+000	-6.7099014E+001	0.0000000E+000	0.0000000E+000	0.0000000E+000	-2.2900986E+001	0.0000000E+000	0.0000000E+000	0.0000000E+000	2.2900986E+001	2.3672180E+000	2.2900986E+001	-1.021278611308502E-002
3.0650720E-002	3.8825378E-001	1.8086684E-001	4.2831507E-001	-2.4978313E+001	7.008340416078281E+002	-3.7177146E-004	-5.7013047E-001	2.8709160E+007	5.1193130E+006	1.000000000000000E+000	10	1.0640044E-002	2.4841629E-002	0	-1.016663735680328E-001	2.1163573E+000	9.8589849E-001	2.3347299E+000	2.4978313E+001	5.1193134E+009	1.0989259E+010	1.2123167E+010	-6.5021683E+001	0.0000000E+000	0.0000000E+000	0.0000000E+000	6.5021683E+001	0.0000000E+000	0.0000000E+000	0.0000000E+000	-6.5021683E+001	0.0000000E+000	0.0000000E+000	0.0000000E+000	-2.4978313E+001	0.0000000E+000	0.0000000E+000	0.0000000E+000	2.4978313E+001	2.1466277E+000	2.4978313E+001	-3.442872243689124E-002
2.2912171E-002	4.3390840E-001	2.0855108E-001	4.8142502E-001	-2.5670517E+001	9.237264575279842E+002	-3.7274972E-004	-5.2365309E-001	3.3307456E+007	6.2504175E+006	1.000000000000000E+000	10	1.0637637E-002	2.2096146E-002	0	-1.624839137386978E-001	1.8721503E+000	8.9981890E-001	2.0771666E+000	2.5670517E+001	6.2504177E+009	1.3004530E+010	1.4428635E+010	-6.4329483E+001	0.0000000E+000	0.0000000E+000	0.0000000E+000	6.4329483E+001	0.0000000E+000	0.0000000E+000	0.0000000E+000	-6.4329483E+001	0.0000000E+000	0.0000000E+000	0.0000000E+000	-2.5670517E+001	0.0000000E+000	0.0000000E+000	0.0000000E+000	2.5670517E+001	2.0805857E+000	2.5670517E+001	-6.081754017066501E-002
1.7141698E-002	4.9263337E-001	2.2742428E-001	5.4259509E-001	-2.4780416E+001	1.221631212024338E+003	-3.7322476E-004	-5.2375710E-001	4.0825308E+007	7.1721835E+006	1.000000000000000E+000	10	1.0638824E-002	1.9607298E-002	0	-2.401584405391688E-001	1.6732935E+000	7.7247620E-001	1.8429949E+000	2.4780416E+001	7.1721841E+009	1.5535970E+010	1.7111593E+010	-6.5219582E+001	0.0000000E+000	0.0000000E+000	0.0000000E+000	6.5219582E+001	0.0000000E+000	0.0000000E+000	0.0000000E+000	-6.5219582E+001	0.0000000E+000	0.0000000E+000	0.0000000E+000	-2.4780416E+001	0.0000000E+000	0.0000000E+000	0.0000000E+000	2.4780416E+001	2.1661425E+000	2.4780416E+001	-7.767452680047104E-002
1.2833336E-002	5.5878693E-001	2.3156476E-001	6.0486782E-001	-2.2509420E+001	1.619526603296661E+003	-3.7522582E-004	-5.0886816E-001	5.3555996E+007	7.8493210E+006	1.000000000000000E+000	10	1.0638367E-002	1.7587921E-002	0	-3.219312127434537E-001	1.5273033E+000	6.3292396E-001	1.6532538E+000	2.2509420E+001	7.8493215E+009	1.8941129E+010	2.0503126E+010	-6.7490578E+001	0.0000000E+000	0.0000000E+000	0.0000000E+000	6.7490578E+001	0.0000000E+000	0.0000000E+000	0.0000000E+000	-6.7490578E+001	0.0000000E+000	0.0000000E+000	0.0000000E+000	-2.2509420E+001	0.0000000E+000	0.0000000E+000	0.0000000E+000	2.2509420E+001	2.4130914E+000	2.2509420E+001	-8.177277220428483E-002
9.5951417E-003	6.2296909E-001	2.1535414E-001	6.5914178E-001	-1.9069754E+001	2.151683869106171E+003	-3.7019796E-004	-5.0973177E-001	7.7022128E+007	8.2217505E+006	1.000000000000000E+000	10	1.0638094E-002	1.6139310E-002	0	-3.974747013462724E-001	1.4338669E+000	4.9567336E-001	1.5171243E+000	1.9069754E+001	8.2217513E+009	2.3783596E+010	2.5164591E+010	-7.0930244E+001	0.0000000E+000	0.0000000E+000	0.0000000E+000	7.0930244E+001	0.0000000E+000	0.0000000E+000	0.0000000E+000	-7.0930244E+001	0.0000000E+000	0.0000000E+000	0.0000000E+000	-1.9069754E+001	0.0000000E+000	0.0000000E+000	0.0000000E+000	1.9069754E+001	2.8927658E+000	1.9069754E+001	-7.554348860281873E-002
7.1759499E-003	6.7189473E-001	1.8536040E-001	6.9699425E-001	-1.5422965E+001	2.863223875622512E+003	-3.7142917E-004	-4.9515983E-001	1.1965305E+008	8.4625120E+006	1.000000000000000E+000	10	1.0638885E-002	1.5263950E-002	0	-4.625426657694321E-001	1.3830658E+000	3.8155627E-001	1.4347321E+000	1.5422965E+001	8.4625132E+009	3.0674930E+010	3.1820833E+010	-7.4577034E+001	0.0000000E+000	0.0000000E+000	0.0000000E+000	7.4577034E+001	0.0000000E+000	0.0000000E+000	0.0000000E+000	-7.4577034E+001	0.0000000E+000	0.0000000E+000	0.0000000E+000	-1.5422965E+001	0.0000000E+000	0.0000000E+000	0.0000000E+000	1.5422965E+001	3.6248019E+000	1.5422965E+001	-6.506796442315976E-002
5.3663990E-003	7.0474231E-001	1.5434678E-001	7.2144622E-001	-1.2353394E+001	3.814674625480635E+003	-3.7966631E-004	-4.9897146E-001	1.9214965E+008	8.7948170E+006	1.000000000000000E+000	10	1.0641085E-002	1.4749658E-002	0	-5.259285681250103E-001	1.3540117E+000	2.9654434E-001	1.3861047E+000	1.2353394E+001	8.7948175E+009	4.0156848E+010	4.1108652E+010	-7.7646606E+001	0.0000000E+000	0.0000000E+000	0.0000000E+000	7.7646606E+001	0.0000000E+000	0.0000000E+000	0.0000000E+000	-7.7646606E+001	0.0000000E+000	0.0000000E+000	0.0000000E+000	-1.2353394E+001	0.0000000E+000	0.0000000E+000	0.0000000E+000	1.2353394E+001	4.5659671E+000	1.2353394E+001	-6.338590235557817E-002
4.0131938E-003	7.2609764E-001	1.2552783E-001	7.3686838E-001	-9.8083506E+000	5.086923390442535E+003	-3.8260766E-004	-5.0850475E-001	3.1592934E+008	9.1683290E+006	1.000000000000000E+000	10	1.0636593E-002	1.4434862E-002	0	-6.043235156150858E-001	1.3372579E+000	2.3118526E-001	1.3570944E+000	9.8083506E+000	9.1683277E+009	5.3032874E+010	5.3819552E+010	-8.0191650E+001	0.0000000E+000	0.0000000E+000	0.0000000E+000	8.0191650E+001	0.0000000E+000	0.0000000E+000	0.0000000E+000	-8.0191650E+001	0.0000000E+000	0.0000000E+000	0.0000000E+000	-9.8083506E+000	0.0000000E+000	0.0000000E+000	0.0000000E+000	9.8083506E+000	5.7843561E+000	9.8083506E+000	-7.839494749007547E-002
3.0008093E-003	7.4104768E-001	1.0086145E-001	7.4788016E-001	-7.7507048E+000	6.788370292403619E+003	-3.7752365E-004	-5.0733322E-001	5.2584355E+008	9.5640740E+006	1.000000000000000E+000	10	1.0637266E-002	1.4223223E-002	0	-7.582053834760140E-001	1.3248972E+000	1.8032718E-001	1.3371127E+000	7.7507048E+000	9.5640709E+009	7.0269018E+010	7.0916899E+010	-8.2249298E+001	0.0000000E+000	0.0000000E+000	0.0000000E+000	8.2249298E+001	0.0000000E+000	0.0000000E+000	0.0000000E+000	-8.2249298E+001	0.0000000E+000	0.0000000E+000	0.0000000E+000	-7.7507048E+000	0.0000000E+000	0.0000000E+000	0.0000000E+000	7.7507048E+000	7.3471842E+000	7.7507048E+000	-1.538818678609282E-001