EC-Lab ASCII FILE
Nb header lines : 66                          

Potentio Electrochemical Impedance Spectroscopy

Run on channel : 1 (SN 50780)
User : 
CE vs. WE compliance from -10 V to 10 V
Electrode connection : standard
Potential control : Ewe
Ewe ctrl range : min = -10.00 V, max = 10.00 V
Safety Limits :
	Do not start on E overload
Acquisition started on : 02/13/2023 17:02:43.459
Loaded Setting File :  C:\Users\sto063\Documents\EC-Lab\Data\Baichen\Micormolding\20230213_denseNoPatternS3_FTFF\NoPattern_FTFF_05Fe_2MHCL_ve10cms_EIS_PCGA.mps
Saved on :
	File : NoPattern_FTFF_05Fe_2MHCL_ve2cms_EIS_PCGA_01_PEIS_C01.mpr
	Directory : C:\Users\sto063\Documents\EC-Lab\Data\Baichen\Micormolding\20230213_denseNoPatternS3_FTFF\
	Host : 131.155.90.158
Device : VSP-3e (SN .003050)
Address : USB
EC-Lab for windows v11.43 (software)
Internet server v11.40 (firmware)
Command interpretor v11.40 (firmware)
Electrode material : 
Initial state : 
Electrolyte : 
Comments : 
Electrode surface area : 0.001 cm2
Characteristic mass : 0.001 g
Equivalent Weight : 0.000 g/eq.
Density : 0.000 g/cm3
Volume (V) : 0.001 cm3
Cycle Definition : Charge/Discharge alternance
Mode                Single sine         
E (V)               0.0000              
vs.                 Eoc                 
tE (h:m:s)          0:00:0.0000         
record              0                   
dI                  0.000               
unit dI             mA                  
dt (s)              0.000               
fi                  200.000             
unit fi             kHz                 
ff                  4.000               
unit ff             mHz                 
Nd                  8                   
Points              per decade          
spacing             Logarithmic         
Va (mV)             10.0                
pw                  0.10                
Na                  5                   
corr                0                   
E range min (V)     -10.000             
E range max (V)     10.000              
I Range             Auto                
Bandwidth           5                   
nc cycles           0                   
goto Ns'            0                   
nr cycles           0                   
inc. cycle          0                   

Modify on : 02/13/2023 17:02
ff                  5.000               

freq/Hz	Re(Z)/Ohm	-Im(Z)/Ohm	|Z|/Ohm	Phase(Z)/deg	time/s	<Ewe>/V	<I>/mA	Cs/uF	Cp/uF	cycle number	I Range	|Ewe|/V	|I|/A	Ns	(Q-Qo)/mA.h	Re(Y)/Ohm-1	Im(Y)/Ohm-1	|Y|/Ohm-1	Phase(Y)/deg	Re(C)/nF	Im(C)/nF	|C|/nF	Phase(C)/deg	Re(M)	Im(M)	|M|	Phase(M)/deg	Re(Permittivity)	Im(Permittivity)	|Permittivity|	Phase(Permittivity)/deg	Re(Resistivity)/Ohm.cm	Im(Resistivity)/Ohm.cm	|Resistivity|/Ohm.cm	Phase(Resistivity)/deg	Re(Conductivity)/mS/cm	Im(Conductivity)/mS/cm	|Conductivity|/mS/cm	Phase(Conductivity)/deg	Tan(Delta)	Loss Angle(Delta)/deg	dq/mA.h	
1.9999814E+005	1.8902992E-001	-1.4768429E-001	2.3988113E-001	3.7999611E+001	1.739493549248436E+000	-4.9668376E-004	-2.2865775E+000	-5.3884006E+000	-2.0423789E+000	1.000000000000000E+000	9	9.6663350E-004	4.0296353E-003	0	-9.621589712309457E-004	3.2850225E+000	-2.5665050E+000	4.1687312E+000	-3.7999611E+001	-2.0423788E+003	2.6141621E+003	3.3174019E+003	-1.2799961E+002	0.0000000E+000	0.0000000E+000	0.0000000E+000	1.2799961E+002	0.0000000E+000	0.0000000E+000	0.0000000E+000	-1.2799961E+002	0.0000000E+000	0.0000000E+000	0.0000000E+000	3.7999611E+001	0.0000000E+000	0.0000000E+000	0.0000000E+000	-3.7999611E+001	-1.2799596E+000	-3.7999611E+001	-9.621589712309457E-004
1.4956020E+005	1.9757187E-001	-1.0898554E-001	2.2563797E-001	2.8882217E+001	2.563475721719442E+000	-5.0888542E-004	-2.1182406E+000	-9.7641668E+000	-2.2779732E+000	1.000000000000000E+000	9	1.9050855E-003	8.4431069E-003	0	-1.460496587787341E-003	3.8806167E+000	-2.1406443E+000	4.4318781E+000	-2.8882217E+001	-2.2779731E+003	4.1295703E+003	4.7161968E+003	-1.1888222E+002	0.0000000E+000	0.0000000E+000	0.0000000E+000	1.1888222E+002	0.0000000E+000	0.0000000E+000	0.0000000E+000	-1.1888222E+002	0.0000000E+000	0.0000000E+000	0.0000000E+000	2.8882217E+001	0.0000000E+000	0.0000000E+000	0.0000000E+000	-2.8882217E+001	-1.8128264E+000	-2.8882217E+001	-4.983376165563952E-004
1.1184308E+005	2.0124738E-001	-8.0214061E-002	2.1664442E-001	2.1731455E+001	3.387488560896600E+000	-5.2410486E-004	-2.0174174E+000	-1.7740282E+001	-2.4320164E+000	1.000000000000000E+000	9	4.7868756E-003	2.2095541E-002	0	-1.939136135931644E-003	4.2878070E+000	-1.7090529E+000	4.6158586E+000	-2.1731455E+001	-2.4320166E+003	6.1016353E+003	6.5684595E+003	-1.1173145E+002	0.0000000E+000	0.0000000E+000	0.0000000E+000	1.1173145E+002	0.0000000E+000	0.0000000E+000	0.0000000E+000	-1.1173145E+002	0.0000000E+000	0.0000000E+000	0.0000000E+000	2.1731455E+001	0.0000000E+000	0.0000000E+000	0.0000000E+000	-2.1731455E+001	-2.5088792E+000	-2.1731455E+001	-4.786395481443033E-004
8.3636430E+004	2.0177138E-001	-5.8274873E-002	2.1001822E-001	1.6109581E+001	4.348482473200420E+000	-5.4362719E-004	-1.9630499E+000	-3.2654522E+001	-2.5141549E+000	1.000000000000000E+000	9	2.2454841E-002	1.0691854E-001	0	-2.605361456034498E-003	4.5745211E+000	-1.3211964E+000	4.7614918E+000	-1.6109581E+001	-2.5141548E+003	8.7050303E+003	9.0608232E+003	-1.0610958E+002	0.0000000E+000	0.0000000E+000	0.0000000E+000	1.0610958E+002	0.0000000E+000	0.0000000E+000	0.0000000E+000	-1.0610958E+002	0.0000000E+000	0.0000000E+000	0.0000000E+000	1.6109581E+001	0.0000000E+000	0.0000000E+000	0.0000000E+000	-1.6109581E+001	-3.4624078E+000	-1.6109581E+001	-6.662253201028538E-004
6.2258758E+004	2.0226301E-001	-4.2339928E-002	2.0664704E-001	1.1823064E+001	6.405482224217849E+000	-4.4331269E-004	-1.5133203E+000	-6.0376724E+001	-2.5346117E+000	1.000000000000000E+000	9	1.2064805E-002	5.8383636E-002	0	-3.256776941995136E-003	4.7365065E+000	-9.9149776E-001	4.8391695E+000	-1.1823064E+001	-2.5346121E+003	1.2108149E+004	1.2370592E+004	-1.0182307E+002	0.0000000E+000	0.0000000E+000	0.0000000E+000	1.0182307E+002	0.0000000E+000	0.0000000E+000	0.0000000E+000	-1.0182307E+002	0.0000000E+000	0.0000000E+000	0.0000000E+000	1.1823064E+001	0.0000000E+000	0.0000000E+000	0.0000000E+000	-1.1823064E+001	-4.7771220E+000	-1.1823064E+001	-6.514154859606383E-004
4.6503859E+004	2.0307195E-001	-3.0157588E-002	2.0529905E-001	8.4470816E+000	7.503493609692669E+000	-4.1348848E-004	-1.3358083E+000	-1.1348396E+002	-2.4488029E+000	1.000000000000000E+000	9	9.4223544E-003	4.5895752E-002	0	-3.906021253335600E-003	4.8181028E+000	-7.1552151E-001	4.8709431E+000	-8.4470816E+000	-2.4488032E+003	1.6489490E+004	1.6670330E+004	-9.8447083E+001	0.0000000E+000	0.0000000E+000	0.0000000E+000	9.8447083E+001	0.0000000E+000	0.0000000E+000	0.0000000E+000	-9.8447083E+001	0.0000000E+000	0.0000000E+000	0.0000000E+000	8.4470816E+000	0.0000000E+000	0.0000000E+000	0.0000000E+000	-8.4470816E+000	-6.7336931E+000	-8.4470816E+000	-6.492443113404640E-004
3.4738715E+004	2.0411579E-001	-2.1046486E-002	2.0519798E-001	5.8869939E+000	8.327483142173151E+000	-3.9823170E-004	-1.2521435E+000	-2.1768414E+002	-2.2900229E+000	1.000000000000000E+000	9	9.3538212E-003	4.5584373E-002	0	-4.235501265846400E-003	4.8476410E+000	-4.9984285E-001	4.8733425E+000	-5.8869939E+000	-2.2900229E+003	2.2209402E+004	2.2327152E+004	-9.5886993E+001	0.0000000E+000	0.0000000E+000	0.0000000E+000	9.5886993E+001	0.0000000E+000	0.0000000E+000	0.0000000E+000	-9.5886993E+001	0.0000000E+000	0.0000000E+000	0.0000000E+000	5.8869939E+000	0.0000000E+000	0.0000000E+000	0.0000000E+000	-5.8869939E+000	-9.6983318E+000	-5.8869939E+000	-3.294800125107993E-004
2.5951973E+004	2.0499995E-001	-1.4217059E-002	2.0549235E-001	3.9671977E+000	9.151491634635022E+000	-3.8645844E-004	-1.2359551E+000	-4.3136011E+002	-2.0647535E+000	1.000000000000000E+000	9	9.9230353E-003	4.8289075E-002	0	-4.484134699544973E-003	4.8547006E+000	-3.3668089E-001	4.8663611E+000	-3.9671977E+000	-2.0647556E+003	2.9772289E+004	2.9843801E+004	-9.3967201E+001	0.0000000E+000	0.0000000E+000	0.0000000E+000	9.3967201E+001	0.0000000E+000	0.0000000E+000	0.0000000E+000	-9.3967201E+001	0.0000000E+000	0.0000000E+000	0.0000000E+000	3.9671977E+000	0.0000000E+000	0.0000000E+000	0.0000000E+000	-3.9671977E+000	-1.4419293E+001	-3.9671977E+000	-2.486334336985734E-004
1.9382795E+004	2.0604959E-001	-9.0493038E-003	2.0624821E-001	2.5147052E+000	9.975497967127012E+000	-3.9035181E-004	-1.2320385E+000	-9.0737860E+002	-1.7467812E+000	1.000000000000000E+000	9	1.0287460E-002	4.9879026E-002	0	-4.800207875514093E-003	4.8438578E+000	-2.1273297E-001	4.8485270E+000	-2.5147052E+000	-1.7467792E+003	3.9773621E+004	3.9811961E+004	-9.2514702E+001	0.0000000E+000	0.0000000E+000	0.0000000E+000	9.2514702E+001	0.0000000E+000	0.0000000E+000	0.0000000E+000	-9.2514702E+001	0.0000000E+000	0.0000000E+000	0.0000000E+000	2.5147052E+000	0.0000000E+000	0.0000000E+000	0.0000000E+000	-2.5147052E+000	-2.2769663E+001	-2.5147052E+000	-3.160731759691195E-004
1.4474464E+004	2.0718348E-001	-5.2714902E-003	2.0725054E-001	1.4574955E+000	1.079949176622904E+001	-3.8651429E-004	-1.1907469E+000	-2.0858555E+003	-1.3494591E+000	1.000000000000000E+000	9	1.0448748E-002	5.0416026E-002	0	-5.116217333755145E-003	4.8235168E+000	-1.2272755E-001	4.8250780E+000	-1.4574955E+000	-1.3494602E+003	5.3037309E+004	5.3054473E+004	-9.1457497E+001	0.0000000E+000	0.0000000E+000	0.0000000E+000	9.1457497E+001	0.0000000E+000	0.0000000E+000	0.0000000E+000	-9.1457497E+001	0.0000000E+000	0.0000000E+000	0.0000000E+000	1.4574955E+000	0.0000000E+000	0.0000000E+000	0.0000000E+000	-1.4574955E+000	-3.9302639E+001	-1.4574955E+000	-3.160094582410527E-004
1.0818732E+004	2.0828579E-001	-2.4654386E-003	2.0830038E-001	6.7816740E-001	1.162349012537743E+001	-3.8377588E-004	-1.1871848E+000	-5.9669111E+003	-8.3590668E-001	1.000000000000000E+000	9	1.0464423E-002	5.0237179E-002	0	-5.444558373409841E-003	4.8004231E+000	-5.6821682E-002	4.8007593E+000	-6.7816740E-001	-8.3590906E+002	7.0619281E+004	7.0624227E+004	-9.0678169E+001	0.0000000E+000	0.0000000E+000	0.0000000E+000	9.0678169E+001	0.0000000E+000	0.0000000E+000	0.0000000E+000	-9.0678169E+001	0.0000000E+000	0.0000000E+000	0.0000000E+000	6.7816740E-001	0.0000000E+000	0.0000000E+000	0.0000000E+000	-6.7816740E-001	-8.4482246E+001	-6.7816740E-001	-3.283410396546955E-004
8.0797285E+003	2.0935546E-001	-4.4102280E-004	2.0935592E-001	1.2069763E-001	1.254893678272492E+001	-3.8109338E-004	-1.1422378E+000	-4.4664484E+004	-1.9820470E-001	1.000000000000000E+000	9	1.0417179E-002	4.9758226E-002	0	-5.648773350723915E-003	4.7765441E+000	-1.0062144E-002	4.7765546E+000	-1.2069763E-001	-1.9820369E+002	9.4088633E+004	9.4088844E+004	-9.0120697E+001	0.0000000E+000	0.0000000E+000	0.0000000E+000	9.0120697E+001	0.0000000E+000	0.0000000E+000	0.0000000E+000	-9.0120697E+001	0.0000000E+000	0.0000000E+000	0.0000000E+000	1.2069763E-001	0.0000000E+000	0.0000000E+000	0.0000000E+000	-1.2069763E-001	-4.7470438E+002	-1.2069763E-001	-2.042149773140746E-004
6.0326597E+003	2.1051404E-001	9.0766122E-004	2.1051599E-001	-2.4703738E-001	1.371596601148485E+001	-3.8286307E-004	-1.0853919E+000	2.9066150E+004	5.4033720E-001	1.000000000000000E+000	9	1.0257162E-002	4.8723910E-002	0	-6.073499873457683E-003	4.7501888E+000	2.0481117E-002	4.7502332E+000	2.4703738E-001	5.4034253E+002	1.2532052E+005	1.2532168E+005	-8.9752960E+001	0.0000000E+000	0.0000000E+000	0.0000000E+000	8.9752960E+001	0.0000000E+000	0.0000000E+000	0.0000000E+000	-8.9752960E+001	0.0000000E+000	0.0000000E+000	0.0000000E+000	-2.4703738E-001	0.0000000E+000	0.0000000E+000	0.0000000E+000	2.4703738E-001	2.3193019E+002	2.4703738E-001	-4.247265227337680E-004
4.5064424E+003	2.1161027E-001	1.7954822E-003	2.1161789E-001	-4.8613465E-001	1.505368815503607E+001	-3.7779612E-004	-1.0480355E+000	1.9670039E+004	1.4159981E+000	1.000000000000000E+000	9	1.0192662E-002	4.8165411E-002	0	-6.368487794654806E-003	4.7253284E+000	4.0093724E-002	4.7254987E+000	4.8613465E-001	1.4160061E+003	1.6688539E+005	1.6689139E+005	-8.9513863E+001	0.0000000E+000	0.0000000E+000	0.0000000E+000	8.9513863E+001	0.0000000E+000	0.0000000E+000	0.0000000E+000	-8.9513863E+001	0.0000000E+000	0.0000000E+000	0.0000000E+000	-4.8613465E-001	0.0000000E+000	0.0000000E+000	0.0000000E+000	4.8613465E-001	1.1785707E+002	4.8613465E-001	-2.949879211971230E-004
3.3660774E+003	2.1255411E-001	2.4084090E-003	2.1256776E-001	-6.4917946E-001	1.616971388804086E+001	-3.7032607E-004	-1.0549175E+000	1.9632057E+004	2.5201795E+000	1.000000000000000E+000	9	1.0828113E-002	5.0939582E-002	0	-6.701348862798264E-003	4.7040806E+000	5.3301014E-002	4.7043824E+000	6.4917946E-001	2.5201721E+003	2.2241842E+005	2.2243270E+005	-8.9350822E+001	0.0000000E+000	0.0000000E+000	0.0000000E+000	8.9350822E+001	0.0000000E+000	0.0000000E+000	0.0000000E+000	-8.9350822E+001	0.0000000E+000	0.0000000E+000	0.0000000E+000	-6.4917946E-001	0.0000000E+000	0.0000000E+000	0.0000000E+000	6.4917946E-001	8.8254990E+001	6.4917946E-001	-3.328610681434573E-004
2.5158052E+003	2.1356606E-001	2.7237174E-003	2.1358344E-001	-7.3068273E-001	1.750668096487789E+001	-3.6997214E-004	-1.0247042E+000	2.3226355E+004	3.7772002E+000	1.000000000000000E+000	9	1.0186126E-002	4.7691554E-002	0	-7.076320622055067E-003	4.6816306E+000	5.9707224E-002	4.6820111E+000	7.3068273E-001	3.7771985E+003	2.9616944E+005	2.9619353E+005	-8.9269318E+001	0.0000000E+000	0.0000000E+000	0.0000000E+000	8.9269318E+001	0.0000000E+000	0.0000000E+000	0.0000000E+000	-8.9269318E+001	0.0000000E+000	0.0000000E+000	0.0000000E+000	-7.3068273E-001	0.0000000E+000	0.0000000E+000	0.0000000E+000	7.3068273E-001	7.8409775E+001	7.3068273E-001	-3.749717592568032E-004
1.8781967E+003	2.1447507E-001	2.9195682E-003	2.1449493E-001	-7.7989769E-001	1.862293139120447E+001	-3.6529635E-004	-1.0285648E+000	2.9024213E+004	5.3772922E+000	1.000000000000000E+000	9	1.0394342E-002	4.8459619E-002	0	-7.376454432779250E-003	4.6616831E+000	6.3457735E-002	4.6621151E+000	7.7989769E-001	5.3773052E+003	3.9502247E+005	3.9505906E+005	-8.9220100E+001	0.0000000E+000	0.0000000E+000	0.0000000E+000	8.9220100E+001	0.0000000E+000	0.0000000E+000	0.0000000E+000	-8.9220100E+001	0.0000000E+000	0.0000000E+000	0.0000000E+000	-7.7989769E-001	0.0000000E+000	0.0000000E+000	0.0000000E+000	7.7989769E-001	7.3461227E+001	7.7989769E-001	-3.001338107241833E-004
1.4036523E+003	2.1520792E-001	2.9317178E-003	2.1522789E-001	-7.8047621E-001	1.973896109755151E+001	-3.6270698E-004	-1.0269235E+000	3.8675719E+004	7.1760530E+000	1.000000000000000E+000	9	1.0508681E-002	4.8825834E-002	0	-7.702423478489328E-003	4.6458068E+000	6.3288532E-002	4.6462379E+000	7.8047621E-001	7.1760830E+003	5.2677088E+005	5.2681975E+005	-8.9219521E+001	0.0000000E+000	0.0000000E+000	0.0000000E+000	8.9219521E+001	0.0000000E+000	0.0000000E+000	0.0000000E+000	-8.9219521E+001	0.0000000E+000	0.0000000E+000	0.0000000E+000	-7.8047621E-001	0.0000000E+000	0.0000000E+000	0.0000000E+000	7.8047621E-001	7.3406769E+001	7.8047621E-001	-3.259690457100778E-004
1.0476533E+003	2.1591537E-001	2.9257133E-003	2.1593519E-001	-7.7632624E-001	2.085822645734879E+001	-3.6270698E-004	-1.0201162E+000	5.1924313E+004	9.5320749E+000	1.000000000000000E+000	9	1.0572447E-002	4.8961204E-002	0	-8.045089104768095E-003	4.6305943E+000	6.2745839E-002	4.6310191E+000	7.7632624E-001	9.5321094E+003	7.0345975E+005	7.0352431E+005	-8.9223671E+001	0.0000000E+000	0.0000000E+000	0.0000000E+000	8.9223671E+001	0.0000000E+000	0.0000000E+000	0.0000000E+000	-8.9223671E+001	0.0000000E+000	0.0000000E+000	0.0000000E+000	-7.7632624E-001	0.0000000E+000	0.0000000E+000	0.0000000E+000	7.7632624E-001	7.3799225E+001	7.7632624E-001	-3.426656262787674E-004
7.8324554E+002	2.1644904E-001	2.8781232E-003	2.1646817E-001	-7.6181716E-001	2.197719803053769E+001	-3.6436494E-004	-1.0220745E+000	7.0601320E+004	1.2480830E+001	1.000000000000000E+000	9	1.0603153E-002	4.8982505E-002	0	-8.381604643343223E-003	4.6192088E+000	6.1421622E-002	4.6196170E+000	7.6181716E-001	1.2480843E+004	9.3861988E+005	9.3870288E+005	-8.9238182E+001	0.0000000E+000	0.0000000E+000	0.0000000E+000	8.9238182E+001	0.0000000E+000	0.0000000E+000	0.0000000E+000	-8.9238182E+001	0.0000000E+000	0.0000000E+000	0.0000000E+000	-7.6181716E-001	0.0000000E+000	0.0000000E+000	0.0000000E+000	7.6181716E-001	7.5204926E+001	7.6181716E-001	-3.365155385751280E-004
5.8443896E+002	2.1689929E-001	2.8873861E-003	2.1691851E-001	-7.6268232E-001	2.309293571018497E+001	-3.7446161E-004	-1.0297024E+000	9.4313977E+004	1.6710621E+001	1.000000000000000E+000	9	1.0617370E-002	4.8946351E-002	0	-8.735687146871868E-003	4.6096172E+000	6.1363708E-002	4.6100259E+000	7.6268232E-001	1.6710570E+004	1.2552951E+006	1.2554064E+006	-8.9237320E+001	0.0000000E+000	0.0000000E+000	0.0000000E+000	8.9237320E+001	0.0000000E+000	0.0000000E+000	0.0000000E+000	-8.9237320E+001	0.0000000E+000	0.0000000E+000	0.0000000E+000	-7.6268232E-001	0.0000000E+000	0.0000000E+000	0.0000000E+000	7.6268232E-001	7.5119598E+001	7.6268232E-001	-3.540825035286445E-004
4.3681717E+002	2.1743990E-001	2.8398703E-003	2.1745844E-001	-7.4826801E-001	2.420393362961477E+001	-3.7448024E-004	-1.0333765E+000	1.2829861E+005	2.1880960E+001	1.000000000000000E+000	9	1.0628743E-002	4.8877124E-002	0	-9.081605942322149E-003	4.5981879E+000	6.0054552E-002	4.5985799E+000	7.4826801E-001	2.1880961E+004	1.6753560E+006	1.6754989E+006	-8.9251732E+001	0.0000000E+000	0.0000000E+000	0.0000000E+000	8.9251732E+001	0.0000000E+000	0.0000000E+000	0.0000000E+000	-8.9251732E+001	0.0000000E+000	0.0000000E+000	0.0000000E+000	-7.4826801E-001	0.0000000E+000	0.0000000E+000	0.0000000E+000	7.4826801E-001	7.6566841E+001	7.4826801E-001	-3.459187954502809E-004
3.2635764E+002	2.1791029E-001	2.8547866E-003	2.1792899E-001	-7.5057429E-001	2.531493680240237E+001	-3.8284445E-004	-1.0517470E+000	1.7082550E+005	2.9313658E+001	1.000000000000000E+000	9	1.0634695E-002	4.8798900E-002	0	-9.403582041986080E-003	4.5882568E+000	6.0109571E-002	4.5886507E+000	7.5057429E-001	2.9313576E+004	2.2375570E+006	2.2377490E+006	-8.9249428E+001	0.0000000E+000	0.0000000E+000	0.0000000E+000	8.9249428E+001	0.0000000E+000	0.0000000E+000	0.0000000E+000	-8.9249428E+001	0.0000000E+000	0.0000000E+000	0.0000000E+000	-7.5057429E-001	0.0000000E+000	0.0000000E+000	0.0000000E+000	7.5057429E-001	7.6331551E+001	7.5057429E-001	-3.219760996639315E-004
2.4382964E+002	2.1834238E-001	3.1222149E-003	2.1836470E-001	-8.1925255E-001	2.643573842897604E+001	-3.7479692E-004	-1.0225035E+000	2.0905995E+005	4.2739712E+001	1.000000000000000E+000	9	1.0636522E-002	4.8709895E-002	0	-9.687907378235624E-003	4.5790267E+000	6.5478384E-002	4.5794950E+000	8.1925255E-001	4.2739680E+004	2.9888685E+006	2.9891740E+006	-8.9180748E+001	0.0000000E+000	0.0000000E+000	0.0000000E+000	8.9180748E+001	0.0000000E+000	0.0000000E+000	0.0000000E+000	-8.9180748E+001	0.0000000E+000	0.0000000E+000	0.0000000E+000	-8.1925255E-001	0.0000000E+000	0.0000000E+000	0.0000000E+000	8.1925255E-001	6.9931885E+001	8.1925255E-001	-2.843253362495440E-004
1.8215671E+002	2.1882689E-001	3.1839591E-003	2.1885005E-001	-8.3360207E-001	2.754040461473051E+001	-3.8720353E-004	-1.0415826E+000	2.7441478E+005	5.8083019E+001	1.000000000000000E+000	9	1.0637891E-002	4.8608124E-002	0	-1.005149100763475E-002	4.5688553E+000	6.6477425E-002	4.5693388E+000	8.3360207E-001	5.8083074E+004	3.9919250E+006	3.9923475E+006	-8.9166397E+001	0.0000000E+000	0.0000000E+000	0.0000000E+000	8.9166397E+001	0.0000000E+000	0.0000000E+000	0.0000000E+000	-8.9166397E+001	0.0000000E+000	0.0000000E+000	0.0000000E+000	-8.3360207E-001	0.0000000E+000	0.0000000E+000	0.0000000E+000	8.3360207E-001	6.8727921E+001	8.3360207E-001	-3.635836293991255E-004
1.3591333E+002	2.1927105E-001	3.2784410E-003	2.1929556E-001	-8.5659659E-001	2.865039546744083E+001	-3.8787417E-004	-1.0442683E+000	3.5718294E+005	7.9829933E+001	1.000000000000000E+000	9	1.0636848E-002	4.8504621E-002	0	-1.042636965435143E-002	4.5595460E+000	6.8172261E-002	4.5600557E+000	8.5659659E-001	7.9830055E+004	5.3392430E+006	5.3398400E+006	-8.9143402E+001	0.0000000E+000	0.0000000E+000	0.0000000E+000	8.9143402E+001	0.0000000E+000	0.0000000E+000	0.0000000E+000	-8.9143402E+001	0.0000000E+000	0.0000000E+000	0.0000000E+000	-8.5659659E-001	0.0000000E+000	0.0000000E+000	0.0000000E+000	8.5659659E-001	6.6882721E+001	8.5659659E-001	-3.748786467166823E-004
1.0159299E+002	2.1988894E-001	3.6361481E-003	2.1991900E-001	-9.4737351E-001	2.975063415977274E+001	-3.9055667E-004	-1.0443616E+000	4.3083878E+005	1.1778024E+002	1.000000000000000E+000	9	1.0641209E-002	4.8386946E-002	0	-1.076740455494862E-002	4.5465069E+000	7.5182378E-002	4.5471287E+000	9.4737351E-001	1.1778010E+005	7.1225290E+006	7.1235030E+006	-8.9052628E+001	0.0000000E+000	0.0000000E+000	0.0000000E+000	8.9052628E+001	0.0000000E+000	0.0000000E+000	0.0000000E+000	-8.9052628E+001	0.0000000E+000	0.0000000E+000	0.0000000E+000	-9.4737351E-001	0.0000000E+000	0.0000000E+000	0.0000000E+000	9.4737351E-001	6.0473045E+001	9.4737351E-001	-3.410349005971928E-004
7.5898621E+001	2.2051367E-001	3.8641070E-003	2.2054753E-001	-1.0039032E+000	3.085540767884231E+001	-3.9202833E-004	-1.0170949E+000	5.4267163E+005	1.6658313E+002	1.000000000000000E+000	9	1.0642845E-002	4.8256472E-002	0	-1.107916481790940E-002	4.5334740E+000	7.9441011E-002	4.5341702E+000	1.0039032E+000	1.6658364E+005	9.5064290E+006	9.5078880E+006	-8.8996094E+001	0.0000000E+000	0.0000000E+000	0.0000000E+000	8.8996094E+001	0.0000000E+000	0.0000000E+000	0.0000000E+000	-8.8996094E+001	0.0000000E+000	0.0000000E+000	0.0000000E+000	-1.0039032E+000	0.0000000E+000	0.0000000E+000	0.0000000E+000	1.0039032E+000	5.7067177E+001	1.0039032E+000	-3.117602629607742E-004
5.6687008E+001	2.2107132E-001	4.2948266E-003	2.2111303E-001	-1.1129644E+000	3.194080663712521E+001	-3.8800456E-004	-1.0304857E+000	6.5371875E+005	2.4663435E+002	1.000000000000000E+000	9	1.0638210E-002	4.8112091E-002	0	-1.133181929781598E-002	4.5217209E+000	8.7844990E-002	4.5225739E+000	1.1129644E+000	2.4663356E+005	1.2695223E+007	1.2697618E+007	-8.8887039E+001	0.0000000E+000	0.0000000E+000	0.0000000E+000	8.8887039E+001	0.0000000E+000	0.0000000E+000	0.0000000E+000	-8.8887039E+001	0.0000000E+000	0.0000000E+000	0.0000000E+000	-1.1129644E+000	0.0000000E+000	0.0000000E+000	0.0000000E+000	1.1129644E+000	5.1473862E+001	1.1129644E+000	-2.526544799065847E-004
4.2344173E+001	2.2178775E-001	4.8194067E-003	2.2184011E-001	-1.2448307E+000	3.300069860747317E+001	-3.8947622E-004	-1.0322762E+000	7.7988925E+005	3.6807803E+002	1.000000000000000E+000	9	1.0638182E-002	4.7954276E-002	0	-1.161580154377367E-002	4.5066872E+000	9.7929470E-002	4.5077510E+000	1.2448307E+000	3.6807703E+005	1.6938850E+007	1.6942848E+007	-8.8755173E+001	0.0000000E+000	0.0000000E+000	0.0000000E+000	8.8755173E+001	0.0000000E+000	0.0000000E+000	0.0000000E+000	-8.8755173E+001	0.0000000E+000	0.0000000E+000	0.0000000E+000	-1.2448307E+000	0.0000000E+000	0.0000000E+000	0.0000000E+000	1.2448307E+000	4.6019722E+001	1.2448307E+000	-2.839822459576851E-004
3.1629551E+001	2.2249706E-001	5.4570427E-003	2.2256397E-001	-1.4049752E+000	3.406545551135787E+001	-3.8779966E-004	-1.0170391E+000	9.2208244E+005	5.5433813E+002	1.000000000000000E+000	9	1.0636549E-002	4.7790978E-002	0	-1.200936411290243E-002	4.4917393E+000	1.1016601E-001	4.4930902E+000	1.4049752E+000	5.5433838E+005	2.2601730E+007	2.2608526E+007	-8.8595024E+001	0.0000000E+000	0.0000000E+000	0.0000000E+000	8.8595024E+001	0.0000000E+000	0.0000000E+000	0.0000000E+000	-8.8595024E+001	0.0000000E+000	0.0000000E+000	0.0000000E+000	-1.4049752E+000	0.0000000E+000	0.0000000E+000	0.0000000E+000	1.4049752E+000	4.0772461E+001	1.4049752E+000	-3.935625691287633E-004
2.3616989E+001	2.2341636E-001	6.1950162E-003	2.2350223E-001	-1.5883230E+000	3.524045186044532E+001	-3.8183850E-004	-9.9288696E-001	1.0878103E+006	8.3574597E+002	1.000000000000000E+000	9	1.0640745E-002	4.7609121E-002	0	-1.239087005585660E-002	4.4725094E+000	1.2401628E-001	4.4742284E+000	1.5883230E+000	8.3574731E+005	3.0140250E+007	3.0151834E+007	-8.8411674E+001	0.0000000E+000	0.0000000E+000	0.0000000E+000	8.8411674E+001	0.0000000E+000	0.0000000E+000	0.0000000E+000	-8.8411674E+001	0.0000000E+000	0.0000000E+000	0.0000000E+000	-1.5883230E+000	0.0000000E+000	0.0000000E+000	0.0000000E+000	1.5883230E+000	3.6063885E+001	1.5883230E+000	-3.815059429541651E-004
1.7635441E+001	2.2432336E-001	6.9211605E-003	2.2443011E-001	-1.7672145E+000	3.648860863981099E+001	-3.7591462E-004	-1.0069399E+000	1.3039319E+006	1.2400823E+003	1.000000000000000E+000	9	1.0636079E-002	4.7391497E-002	0	-1.274837334912177E-002	4.4536109E+000	1.3740946E-001	4.4557300E+000	1.7672145E+000	1.2400804E+006	4.0192600E+007	4.0211724E+007	-8.8232788E+001	0.0000000E+000	0.0000000E+000	0.0000000E+000	8.8232788E+001	0.0000000E+000	0.0000000E+000	0.0000000E+000	-8.8232788E+001	0.0000000E+000	0.0000000E+000	0.0000000E+000	-1.7672145E+000	0.0000000E+000	0.0000000E+000	0.0000000E+000	1.7672145E+000	3.2411236E+001	1.7672145E+000	-3.575032932651746E-004
1.3167131E+001	2.2552362E-001	7.9584690E-003	2.2566400E-001	-2.0210633E+000	3.774362747275336E+001	-3.8013401E-004	-1.0163023E+000	1.5187960E+006	1.8890084E+003	1.000000000000000E+000	9	1.0639479E-002	4.7147438E-002	0	-1.280435560442512E-002	4.4286103E+000	1.5628055E-001	4.4313669E+000	2.0210633E+000	1.8890099E+006	5.3529904E+007	5.3563224E+007	-8.7978935E+001	0.0000000E+000	0.0000000E+000	0.0000000E+000	8.7978935E+001	0.0000000E+000	0.0000000E+000	0.0000000E+000	-8.7978935E+001	0.0000000E+000	0.0000000E+000	0.0000000E+000	-2.0210633E+000	0.0000000E+000	0.0000000E+000	0.0000000E+000	2.0210633E+000	2.8337564E+001	2.0210633E+000	-5.598225530335267E-005
9.8394184E+000	2.2674297E-001	9.0873912E-003	2.2692500E-001	-2.2950687E+000	3.887501043314114E+001	-3.8297486E-004	-9.8535234E-001	1.7799651E+006	2.8544685E+003	1.000000000000000E+000	9	1.0637654E-002	4.6877399E-002	0	-1.315727954141278E-002	4.4032073E+000	1.7647149E-001	4.4067421E+000	2.2950687E+000	2.8544660E+006	7.1222928E+007	7.1280104E+007	-8.7704933E+001	0.0000000E+000	0.0000000E+000	0.0000000E+000	8.7704933E+001	0.0000000E+000	0.0000000E+000	0.0000000E+000	-8.7704933E+001	0.0000000E+000	0.0000000E+000	0.0000000E+000	-2.2950687E+000	0.0000000E+000	0.0000000E+000	0.0000000E+000	2.2950687E+000	2.4951382E+001	2.2950687E+000	-3.529239369876574E-004
7.3564053E+000	2.2824675E-001	1.0510464E-002	2.2848862E-001	-2.6365330E+000	3.967966529804107E+001	-3.9543735E-004	-1.0251517E+000	2.0584133E+006	4.3555923E+003	1.000000000000000E+000	9	1.0640018E-002	4.6566948E-002	0	-1.329845608453970E-002	4.3719525E+000	2.0132269E-001	4.3765855E+000	2.6365330E+000	4.3555965E+006	9.4586672E+007	9.4686904E+007	-8.7363464E+001	0.0000000E+000	0.0000000E+000	0.0000000E+000	8.7363464E+001	0.0000000E+000	0.0000000E+000	0.0000000E+000	-8.7363464E+001	0.0000000E+000	0.0000000E+000	0.0000000E+000	-2.6365330E+000	0.0000000E+000	0.0000000E+000	0.0000000E+000	2.6365330E+000	2.1716143E+001	2.6365330E+000	-1.411765431269182E-004
5.4940224E+000	2.2990635E-001	1.2062034E-002	2.3022255E-001	-3.0032687E+000	4.071076257366803E+001	-3.9048216E-004	-9.9352109E-001	2.4016470E+006	6.5925659E+003	1.000000000000000E+000	9	1.0640019E-002	4.6216231E-002	0	-1.392863786484508E-002	4.3376575E+000	2.2757514E-001	4.3436232E+000	3.0032687E+000	6.5925595E+006	1.2565650E+008	1.2582933E+008	-8.6996735E+001	0.0000000E+000	0.0000000E+000	0.0000000E+000	8.6996735E+001	0.0000000E+000	0.0000000E+000	0.0000000E+000	-8.6996735E+001	0.0000000E+000	0.0000000E+000	0.0000000E+000	-3.0032687E+000	0.0000000E+000	0.0000000E+000	0.0000000E+000	3.0032687E+000	1.9060331E+001	3.0032687E+000	-6.301817803053798E-004
4.1032038E+000	2.3184036E-001	1.3809772E-002	2.3225129E-001	-3.4088452E+000	4.204649445039104E+001	-3.8528480E-004	-9.7334158E-001	2.8087335E+006	9.9304131E+003	1.000000000000000E+000	9	1.0638156E-002	4.5804508E-002	0	-1.415006882988869E-002	4.2980628E+000	2.5601786E-001	4.3056812E+000	3.4088452E+000	9.9304100E+006	1.6671315E+008	1.6700864E+008	-8.6591156E+001	0.0000000E+000	0.0000000E+000	0.0000000E+000	8.6591156E+001	0.0000000E+000	0.0000000E+000	0.0000000E+000	-8.6591156E+001	0.0000000E+000	0.0000000E+000	0.0000000E+000	-3.4088452E+000	0.0000000E+000	0.0000000E+000	0.0000000E+000	3.4088452E+000	1.6788137E+001	3.4088452E+000	-2.214309650436057E-004
3.0637252E+000	2.3415962E-001	1.5872309E-002	2.3469695E-001	-3.8778133E+000	4.379622176018893E+001	-3.8257716E-004	-9.6437573E-001	3.2728808E+006	1.4969094E+004	1.000000000000000E+000	9	1.0640576E-002	4.5337509E-002	0	-1.525939314731500E-002	4.2510586E+000	2.8815436E-001	4.2608137E+000	3.8778133E+000	1.4969102E+007	2.2083477E+008	2.2134152E+008	-8.6122185E+001	0.0000000E+000	0.0000000E+000	0.0000000E+000	8.6122185E+001	0.0000000E+000	0.0000000E+000	0.0000000E+000	-8.6122185E+001	0.0000000E+000	0.0000000E+000	0.0000000E+000	-3.8778133E+000	0.0000000E+000	0.0000000E+000	0.0000000E+000	3.8778133E+000	1.4752713E+001	3.8778133E+000	-1.109324317426316E-003
2.2870317E+000	2.3676987E-001	1.8337375E-002	2.3747891E-001	-4.4286079E+000	4.611020019007265E+001	-3.7944474E-004	-1.0051823E+000	3.7949915E+006	2.2627418E+004	1.000000000000000E+000	9	1.0639717E-002	4.4802785E-002	0	-1.459409340761705E-002	4.1983280E+000	3.2515246E-001	4.2109003E+000	4.4286079E+000	2.2627396E+007	2.9216237E+008	2.9303728E+008	-8.5571396E+001	0.0000000E+000	0.0000000E+000	0.0000000E+000	8.5571396E+001	0.0000000E+000	0.0000000E+000	0.0000000E+000	-8.5571396E+001	0.0000000E+000	0.0000000E+000	0.0000000E+000	-4.4286079E+000	0.0000000E+000	0.0000000E+000	0.0000000E+000	4.4286079E+000	1.2911874E+001	4.4286079E+000	6.652997396979481E-004
1.7095184E+000	2.3997998E-001	2.0877896E-002	2.4088645E-001	-4.9721270E+000	4.917402062896872E+001	-3.7059403E-004	-9.0834439E-001	4.4592270E+006	3.3497184E+004	1.000000000000000E+000	9	1.0639114E-002	4.4166513E-002	0	-1.538066727608463E-002	4.1357117E+000	3.5980067E-001	4.1513333E+000	4.9721270E+000	3.3497206E+007	3.8503184E+008	3.8648621E+008	-8.5027870E+001	0.0000000E+000	0.0000000E+000	0.0000000E+000	8.5027870E+001	0.0000000E+000	0.0000000E+000	0.0000000E+000	-8.5027870E+001	0.0000000E+000	0.0000000E+000	0.0000000E+000	-4.9721270E+000	0.0000000E+000	0.0000000E+000	0.0000000E+000	4.9721270E+000	1.1494452E+001	4.9721270E+000	-7.865738684675761E-004
1.2769697E+000	2.4347754E-001	2.3895465E-002	2.4464731E-001	-5.6051941E+000	5.324829962247168E+001	-3.6785088E-004	-8.3360255E-001	5.2158375E+006	4.9759285E+004	1.000000000000000E+000	9	1.0638773E-002	4.3486167E-002	0	-1.807310898355560E-002	4.0679727E+000	3.9924052E-001	4.0875168E+000	5.6051941E+000	4.9759288E+007	5.0701120E+008	5.0944710E+008	-8.4394806E+001	0.0000000E+000	0.0000000E+000	0.0000000E+000	8.4394806E+001	0.0000000E+000	0.0000000E+000	0.0000000E+000	-8.4394806E+001	0.0000000E+000	0.0000000E+000	0.0000000E+000	-5.6051941E+000	0.0000000E+000	0.0000000E+000	0.0000000E+000	5.6051941E+000	1.0189279E+001	5.6051941E+000	-2.692441707470973E-003
9.5390737E-001	2.4754071E-001	2.7061911E-002	2.4901557E-001	-6.2389741E+000	5.976970563892974E+001	-3.5735822E-004	-9.9500519E-001	6.1653175E+006	7.2814750E+004	1.000000000000000E+000	10	1.0638854E-002	4.2723652E-002	0	-2.062623630784411E-002	3.9920287E+000	4.3642083E-001	4.0158134E+000	6.2389741E+000	7.2814768E+007	6.6605114E+008	6.7001946E+008	-8.3761024E+001	0.0000000E+000	0.0000000E+000	0.0000000E+000	8.3761024E+001	0.0000000E+000	0.0000000E+000	0.0000000E+000	-8.3761024E+001	0.0000000E+000	0.0000000E+000	0.0000000E+000	-6.2389741E+000	0.0000000E+000	0.0000000E+000	0.0000000E+000	6.2389741E+000	9.1471996E+000	6.2389741E+000	-2.553127324288505E-003
7.1203989E-001	2.5238085E-001	3.0869830E-002	2.5426176E-001	-6.9734645E+000	6.701097622286761E+001	-3.6610861E-004	-1.0377393E+000	7.2407175E+006	1.0673036E+005	1.000000000000000E+000	10	1.0639055E-002	4.1842923E-002	0	-2.098883113437643E-002	3.9038608E+000	4.7749868E-001	3.9329548E+000	6.9734645E+000	1.0673036E+008	8.7258970E+008	8.7909280E+008	-8.3026535E+001	0.0000000E+000	0.0000000E+000	0.0000000E+000	8.3026535E+001	0.0000000E+000	0.0000000E+000	0.0000000E+000	-8.3026535E+001	0.0000000E+000	0.0000000E+000	0.0000000E+000	-6.9734645E+000	0.0000000E+000	0.0000000E+000	0.0000000E+000	6.9734645E+000	8.1756477E+000	6.9734645E+000	-3.625948265323191E-004
5.3189677E-001	2.5766185E-001	3.4900494E-002	2.6001474E-001	-7.7138109E+000	7.667891286872327E+001	-3.7312883E-004	-9.9506724E-001	8.5735600E+006	1.5446441E+005	1.000000000000000E+000	10	1.0635193E-002	4.0902272E-002	0	-2.095055993757625E-002	3.8111334E+000	5.1622093E-001	3.8459358E+000	7.7138109E+000	1.5446446E+008	1.1403731E+009	1.1507867E+009	-8.2286186E+001	0.0000000E+000	0.0000000E+000	0.0000000E+000	8.2286186E+001	0.0000000E+000	0.0000000E+000	0.0000000E+000	-8.2286186E+001	0.0000000E+000	0.0000000E+000	0.0000000E+000	-7.7138109E+000	0.0000000E+000	0.0000000E+000	0.0000000E+000	7.7138109E+000	7.3827567E+000	7.7138109E+000	3.827119680017976E-005
3.9774463E-001	2.6387680E-001	3.9201561E-002	2.6677281E-001	-8.4500637E+000	8.958264166830486E+001	-3.6955636E-004	-9.5126706E-001	1.0207336E+007	2.2041241E+005	1.000000000000000E+000	10	1.0638105E-002	3.9877020E-002	0	-2.261793081833836E-002	3.7078154E+000	5.5083340E-001	3.7485080E+000	8.4500637E+000	2.2041248E+008	1.4836584E+009	1.4999412E+009	-8.1549934E+001	0.0000000E+000	0.0000000E+000	0.0000000E+000	8.1549934E+001	0.0000000E+000	0.0000000E+000	0.0000000E+000	-8.1549934E+001	0.0000000E+000	0.0000000E+000	0.0000000E+000	-8.4500637E+000	0.0000000E+000	0.0000000E+000	0.0000000E+000	8.4500637E+000	6.7312827E+000	8.4500637E+000	-1.667370880762114E-003
2.9718882E-001	2.7024850E-001	4.4330385E-002	2.7386025E-001	-9.3155870E+000	1.068273516073532E+002	-3.6501058E-004	-9.4236755E-001	1.2080535E+007	3.1654188E+005	1.000000000000000E+000	10	1.0638777E-002	3.8847469E-002	0	-2.850427350856933E-002	3.6033406E+000	5.9107625E-001	3.6514976E+000	9.3155870E+000	3.1654198E+008	1.9297142E+009	1.9555039E+009	-8.0684410E+001	0.0000000E+000	0.0000000E+000	0.0000000E+000	8.0684410E+001	0.0000000E+000	0.0000000E+000	0.0000000E+000	-8.0684410E+001	0.0000000E+000	0.0000000E+000	0.0000000E+000	-9.3155870E+000	0.0000000E+000	0.0000000E+000	0.0000000E+000	9.3155870E+000	6.0962362E+000	9.3155870E+000	-5.886342690230969E-003
2.2208481E-001	2.7682829E-001	5.0040498E-002	2.8131470E-001	-1.0246349E+001	1.298811923823378E+002	-3.6839471E-004	-9.2890418E-001	1.4321209E+007	4.5314591E+005	1.000000000000000E+000	10	1.0638254E-002	3.7816204E-002	0	-3.944790400962252E-002	3.4980469E+000	6.3231975E-001	3.5547378E+000	1.0246349E+001	4.5314602E+008	2.5068416E+009	2.5474685E+009	-7.9753647E+001	0.0000000E+000	0.0000000E+000	0.0000000E+000	7.9753647E+001	0.0000000E+000	0.0000000E+000	0.0000000E+000	-7.9753647E+001	0.0000000E+000	0.0000000E+000	0.0000000E+000	-1.0246349E+001	0.0000000E+000	0.0000000E+000	0.0000000E+000	1.0246349E+001	5.5320849E+000	1.0246349E+001	-1.094363050105319E-002
1.6555411E-001	2.8471342E-001	5.7238489E-002	2.9041001E-001	-1.1367160E+001	1.607840385701566E+002	-3.6218067E-004	-8.8551128E-001	1.6795464E+007	6.5244688E+005	1.000000000000000E+000	10	1.0639035E-002	3.6634535E-002	0	-5.363826205337803E-002	3.3758626E+000	6.7867994E-001	3.4434075E+000	1.1367160E+001	6.5244672E+008	3.2453755E+009	3.3103094E+009	-7.8632843E+001	0.0000000E+000	0.0000000E+000	0.0000000E+000	7.8632843E+001	0.0000000E+000	0.0000000E+000	0.0000000E+000	-7.8632843E+001	0.0000000E+000	0.0000000E+000	0.0000000E+000	-1.1367160E+001	0.0000000E+000	0.0000000E+000	0.0000000E+000	1.1367160E+001	4.9741602E+000	1.1367160E+001	-1.419035804375551E-002
1.2391352E-001	2.9388067E-001	6.6861421E-002	3.0139062E-001	-1.2817308E+001	2.020487365568115E+002	-3.6187048E-004	-8.5265356E-001	1.9209932E+007	9.4540431E+005	1.000000000000000E+000	10	1.0637213E-002	3.5293777E-002	0	-6.721520604579813E-002	3.2352779E+000	7.3606497E-001	3.3179533E+000	1.2817308E+001	9.4540416E+008	4.1554020E+009	4.2615905E+009	-7.7182693E+001	0.0000000E+000	0.0000000E+000	0.0000000E+000	7.7182693E+001	0.0000000E+000	0.0000000E+000	0.0000000E+000	-7.7182693E+001	0.0000000E+000	0.0000000E+000	0.0000000E+000	-1.2817308E+001	0.0000000E+000	0.0000000E+000	0.0000000E+000	1.2817308E+001	4.3953700E+000	1.2817308E+001	-1.357694399242010E-002
9.2565201E-002	3.0490056E-001	7.9176649E-002	3.1501317E-001	-1.4557055E+001	2.572669356595143E+002	-3.6954595E-004	-8.4046787E-001	2.1715772E+007	1.3718673E+006	1.000000000000000E+000	10	1.0638237E-002	3.3770770E-002	0	-7.645793457112006E-002	3.0725629E+000	7.9788393E-001	3.1744704E+000	1.4557055E+001	1.3718670E+009	5.2829092E+009	5.4581268E+009	-7.5442947E+001	0.0000000E+000	0.0000000E+000	0.0000000E+000	7.5442947E+001	0.0000000E+000	0.0000000E+000	0.0000000E+000	-7.5442947E+001	0.0000000E+000	0.0000000E+000	0.0000000E+000	-1.4557055E+001	0.0000000E+000	0.0000000E+000	0.0000000E+000	1.4557055E+001	3.8508899E+000	1.4557055E+001	-9.242728525321930E-003
6.9078483E-002	3.1953403E-001	9.3430862E-002	3.3291340E-001	-1.6298773E+001	3.312380566129577E+002	-3.6599586E-004	-7.4031144E-001	2.4659654E+007	1.9422500E+006	1.000000000000000E+000	10	1.0642592E-002	3.1968050E-002	0	-8.101905207480946E-002	2.8830659E+000	8.4300047E-001	3.0037842E+000	1.6298773E+001	1.9422504E+009	6.6425057E+009	6.9206369E+009	-7.3701225E+001	0.0000000E+000	0.0000000E+000	0.0000000E+000	7.3701225E+001	0.0000000E+000	0.0000000E+000	0.0000000E+000	-7.3701225E+001	0.0000000E+000	0.0000000E+000	0.0000000E+000	-1.6298773E+001	0.0000000E+000	0.0000000E+000	0.0000000E+000	1.6298773E+001	3.4200053E+000	1.6298773E+001	-4.561117503689399E-003
5.1590133E-002	3.4117749E-001	1.0854809E-001	3.5802901E-001	-1.7648846E+001	4.302633382230706E+002	-3.6654592E-004	-7.5024670E-001	2.8420474E+007	2.6123975E+006	1.000000000000000E+000	10	1.0636000E-002	2.9707091E-002	0	-8.462135385084235E-002	2.6616073E+000	8.4680963E-001	2.7930698E+000	1.7648846E+001	2.6123978E+009	8.2110254E+009	8.6165862E+009	-7.2351151E+001	0.0000000E+000	0.0000000E+000	0.0000000E+000	7.2351151E+001	0.0000000E+000	0.0000000E+000	0.0000000E+000	-7.2351151E+001	0.0000000E+000	0.0000000E+000	0.0000000E+000	-1.7648846E+001	0.0000000E+000	0.0000000E+000	0.0000000E+000	1.7648846E+001	3.1431000E+000	1.7648846E+001	-3.602301776032893E-003
3.8568817E-002	3.6984190E-001	1.2228198E-001	3.8953295E-001	-1.8295595E+001	5.626998816601408E+002	-3.6908037E-004	-7.4657381E-001	3.3745928E+007	3.3255070E+006	1.000000000000000E+000	10	1.0636481E-002	2.7305728E-002	0	-1.013115170088584E-001	2.4374051E+000	8.0588675E-001	2.5671768E+000	1.8295595E+001	3.3255066E+009	1.0057997E+010	1.0593503E+010	-7.1704407E+001	0.0000000E+000	0.0000000E+000	0.0000000E+000	7.1704407E+001	0.0000000E+000	0.0000000E+000	0.0000000E+000	-7.1704407E+001	0.0000000E+000	0.0000000E+000	0.0000000E+000	-1.8295595E+001	0.0000000E+000	0.0000000E+000	0.0000000E+000	1.8295595E+001	3.0245006E+000	1.8295595E+001	-1.669016315801607E-002
2.8815230E-002	4.0357980E-001	1.3031983E-001	4.2409894E-001	-1.7895771E+001	7.399434693320945E+002	-3.6440761E-004	-7.0795655E-001	4.2382592E+007	4.0019733E+006	1.000000000000000E+000	10	1.0639397E-002	2.5087064E-002	0	-1.427784281077079E-001	2.2438564E+000	7.2456300E-001	2.3579404E+000	1.7895771E+001	4.0019725E+009	1.2393475E+010	1.3023594E+010	-7.2104233E+001	0.0000000E+000	0.0000000E+000	0.0000000E+000	7.2104233E+001	0.0000000E+000	0.0000000E+000	0.0000000E+000	-7.2104233E+001	0.0000000E+000	0.0000000E+000	0.0000000E+000	-1.7895771E+001	0.0000000E+000	0.0000000E+000	0.0000000E+000	1.7895771E+001	3.0968409E+000	1.7895771E+001	-4.146691109884944E-002
2.1476839E-002	4.4098639E-001	1.2864538E-001	4.5936763E-001	-1.6263119E+001	9.777281438529317E+002	-3.6480153E-004	-6.9331288E-001	5.7604388E+007	4.5177600E+006	1.000000000000000E+000	10	1.0638720E-002	2.3159491E-002	0	-2.146692409075416E-001	2.0897985E+000	6.0963988E-001	2.1769056E+000	1.6263119E+001	4.5177610E+009	1.5486532E+010	1.6132044E+010	-7.3736877E+001	0.0000000E+000	0.0000000E+000	0.0000000E+000	7.3736877E+001	0.0000000E+000	0.0000000E+000	0.0000000E+000	-7.3736877E+001	0.0000000E+000	0.0000000E+000	0.0000000E+000	-1.6263119E+001	0.0000000E+000	0.0000000E+000	0.0000000E+000	1.6263119E+001	3.4279227E+000	1.6263119E+001	-7.189081279983373E-002
1.6042488E-002	4.7469565E-001	1.1694816E-001	4.8888940E-001	-1.3840031E+001	1.296039673798607E+003	-3.6744363E-004	-6.8017501E-001	8.4831080E+007	4.8542330E+006	1.000000000000000E+000	10	1.0638489E-002	2.1760523E-002	0	-3.139322901414749E-001	1.9860675E+000	4.8929656E-001	2.0454524E+000	1.3840031E+001	4.8542316E+009	1.9703460E+010	2.0292606E+010	-7.6159973E+001	0.0000000E+000	0.0000000E+000	0.0000000E+000	7.6159973E+001	0.0000000E+000	0.0000000E+000	0.0000000E+000	-7.6159973E+001	0.0000000E+000	0.0000000E+000	0.0000000E+000	-1.3840031E+001	0.0000000E+000	0.0000000E+000	0.0000000E+000	1.3840031E+001	4.0590262E+000	1.3840031E+001	-9.926304923393331E-002
1.2003242E-002	4.9940386E-001	1.0013039E-001	5.0934303E-001	-1.1337467E+001	1.721448721364450E+003	-3.6383100E-004	-6.8179649E-001	1.3242063E+008	5.1176050E+006	1.000000000000000E+000	10	1.0638511E-002	2.0886730E-002	0	-4.323037870099677E-001	1.9250020E+000	3.8596261E-001	1.9633135E+000	1.1337467E+001	5.1176033E+009	2.5524236E+010	2.6032220E+010	-7.8662537E+001	0.0000000E+000	0.0000000E+000	0.0000000E+000	7.8662537E+001	0.0000000E+000	0.0000000E+000	0.0000000E+000	-7.8662537E+001	0.0000000E+000	0.0000000E+000	0.0000000E+000	-1.1337467E+001	0.0000000E+000	0.0000000E+000	0.0000000E+000	1.1337467E+001	4.9875350E+000	1.1337467E+001	-1.183714968684928E-001
8.9647388E-003	5.1143301E-001	7.9239756E-002	5.1753515E-001	-8.8071938E+000	2.291023304684408E+003	-3.6706249E-004	-6.9366789E-001	2.2404710E+008	5.2522565E+006	1.000000000000000E+000	10	1.0639285E-002	2.0557608E-002	0	-5.585648258743153E-001	1.9094533E+000	2.9584447E-001	1.9322360E+000	8.8071938E+000	5.2522542E+009	3.3899362E+010	3.4303832E+010	-8.1192810E+001	0.0000000E+000	0.0000000E+000	0.0000000E+000	8.1192810E+001	0.0000000E+000	0.0000000E+000	0.0000000E+000	-8.1192810E+001	0.0000000E+000	0.0000000E+000	0.0000000E+000	-8.8071938E+000	0.0000000E+000	0.0000000E+000	0.0000000E+000	8.8071938E+000	6.4542475E+000	8.8071938E+000	-1.262610388643476E-001
6.6992808E-003	5.1902837E-001	6.2925890E-002	5.2282894E-001	-6.9126811E+000	3.053186846938610E+003	-3.5460098E-004	-6.7979956E-001	3.7753965E+008	5.4689265E+006	1.000000000000000E+000	10	1.0643413E-002	2.0357354E-002	0	-6.761616866681377E-001	1.8987677E+000	2.3020256E-001	1.9126714E+000	6.9126811E+000	5.4689270E+009	4.5109064E+010	4.5439373E+010	-8.3087318E+001	0.0000000E+000	0.0000000E+000	0.0000000E+000	8.3087318E+001	0.0000000E+000	0.0000000E+000	0.0000000E+000	-8.3087318E+001	0.0000000E+000	0.0000000E+000	0.0000000E+000	-6.9126811E+000	0.0000000E+000	0.0000000E+000	0.0000000E+000	6.9126811E+000	8.2482481E+000	6.9126811E+000	-1.175968607938224E-001
5.0018891E-003	5.2734298E-001	5.0714575E-002	5.2977598E-001	-5.4932413E+000	4.073969711263111E+003	-3.5954517E-004	-6.7358696E-001	6.2741267E+008	5.7495565E+006	1.000000000000000E+000	10	1.0639451E-002	2.0082925E-002	0	-7.724976202386560E-001	1.8789215E+000	1.8069588E-001	1.8875903E+000	5.4932413E+000	5.7495547E+009	5.9785339E+010	6.0061172E+010	-8.4506760E+001	0.0000000E+000	0.0000000E+000	0.0000000E+000	8.4506760E+001	0.0000000E+000	0.0000000E+000	0.0000000E+000	-8.4506760E+001	0.0000000E+000	0.0000000E+000	0.0000000E+000	-5.4932413E+000	0.0000000E+000	0.0000000E+000	0.0000000E+000	5.4932413E+000	1.0398252E+001	5.4932413E+000	-9.633593357051828E-002